in Sa,Frequency in Hz,Gain in dB,Phase in °,Amplitude in Vpp
1.00E+00,1.000E+04,-3.998E-02,-4.379E+00,2.500E+00
2.00E+00,1.012E+04,-3.917E-02,-4.427E+00,2.500E+00
3.00E+00,1.023E+04,-4.214E-02,-4.476E+00,2.500E+00
4.00E+00,1.035E+04,-4.322E-02,-4.526E+00,2.500E+00
5.00E+00,1.047E+04,-4.224E-02,-4.583E+00,2.500E+00
6.00E+00,1.059E+04,-4.407E-02,-4.638E+00,2.500E+00
7.00E+00,1.072E+04,-4.469E-02,-4.686E+00,2.500E+00
8.00E+00,1.084E+04,-4.454E-02,-4.742E+00,2.500E+00
9.00E+00,1.096E+04,-4.697E-02,-4.795E+00,2.500E+00
1.00E+01,1.109E+04,-4.875E-02,-4.855E+00,2.500E+00
1.10E+01,1.122E+04,-4.927E-02,-4.908E+00,2.500E+00
1.20E+01,1.135E+04,-5.015E-02,-4.969E+00,2.500E+00
1.30E+01,1.148E+04,-5.004E-02,-5.026E+00,2.500E+00
1.40E+01,1.161E+04,-5.053E-02,-5.085E+00,2.500E+00
1.50E+01,1.175E+04,-5.373E-02,-5.143E+00,2.500E+00
1.60E+01,1.189E+04,-5.410E-02,-5.206E+00,2.500E+00
1.70E+01,1.202E+04,-5.667E-02,-5.270E+00,2.500E+00
1.80E+01,1.216E+04,-5.484E-02,-5.327E+00,2.500E+00
1.90E+01,1.230E+04,-5.585E-02,-5.385E+00,2.500E+00
2.00E+01,1.245E+04,-5.948E-02,-5.455E+00,2.500E+00
2.10E+01,1.259E+04,-6.074E-02,-5.512E+00,2.500E+00
2.20E+01,1.274E+04,-5.895E-02,-5.576E+00,2.500E+00
2.30E+01,1.288E+04,-6.370E-02,-5.645E+00,2.500E+00
2.40E+01,1.303E+04,-6.388E-02,-5.710E+00,2.500E+00
2.50E+01,1.318E+04,-6.617E-02,-5.769E+00,2.500E+00
2.60E+01,1.334E+04,-6.942E-02,-5.837E+00,2.500E+00
2.70E+01,1.349E+04,-6.774E-02,-5.909E+00,2.500E+00
2.80E+01,1.365E+04,-7.023E-02,-5.974E+00,2.500E+00
2.90E+01,1.380E+04,-7.235E-02,-6.045E+00,2.500E+00
3.00E+01,1.396E+04,-7.541E-02,-6.117E+00,2.500E+00
3.10E+01,1.413E+04,-7.513E-02,-6.189E+00,2.500E+00
3.20E+01,1.429E+04,-7.728E-02,-6.258E+00,2.500E+00
3.30E+01,1.445E+04,-8.018E-02,-6.334E+00,2.500E+00
3.40E+01,1.462E+04,-7.999E-02,-6.404E+00,2.500E+00
3.50E+01,1.479E+04,-8.498E-02,-6.474E+00,2.500E+00
3.60E+01,1.496E+04,-8.655E-02,-6.554E+00,2.500E+00
3.70E+01,1.514E+04,-8.809E-02,-6.630E+00,2.500E+00
3.80E+01,1.531E+04,-8.998E-02,-6.706E+00,2.500E+00
3.90E+01,1.549E+04,-9.282E-02,-6.787E+00,2.500E+00
4.00E+01,1.567E+04,-9.363E-02,-6.859E+00,2.500E+00
4.10E+01,1.585E+04,-9.641E-02,-6.938E+00,2.500E+00
4.20E+01,1.603E+04,-9.775E-02,-7.027E+00,2.500E+00
4.30E+01,1.622E+04,-1.013E-01,-7.102E+00,2.500E+00
4.40E+01,1.641E+04,-1.035E-01,-7.185E+00,2.500E+00
4.50E+01,1.660E+04,-1.046E-01,-7.272E+00,2.500E+00
4.60E+01,1.679E+04,-1.074E-01,-7.355E+00,2.500E+00
4.70E+01,1.698E+04,-1.087E-01,-7.439E+00,2.500E+00
4.80E+01,1.718E+04,-1.122E-01,-7.522E+00,2.500E+00
4.90E+01,1.738E+04,-1.158E-01,-7.609E+00,2.500E+00
5.00E+01,1.758E+04,-1.188E-01,-7.699E+00,2.500E+00
5.10E+01,1.778E+04,-1.221E-01,-7.787E+00,2.500E+00
5.20E+01,1.799E+04,-1.264E-01,-7.879E+00,2.500E+00
5.30E+01,1.820E+04,-1.303E-01,-7.968E+00,2.500E+00
5.40E+01,1.841E+04,-1.337E-01,-8.062E+00,2.500E+00
5.50E+01,1.862E+04,-1.334E-01,-8.156E+00,2.500E+00
5.60E+01,1.884E+04,-1.388E-01,-8.247E+00,2.500E+00
5.70E+01,1.905E+04,-1.402E-01,-8.345E+00,2.500E+00
5.80E+01,1.928E+04,-1.448E-01,-8.437E+00,2.500E+00
5.90E+01,1.950E+04,-1.475E-01,-8.542E+00,2.500E+00
6.00E+01,1.972E+04,-1.493E-01,-8.635E+00,2.500E+00
6.10E+01,1.995E+04,-1.553E-01,-8.741E+00,2.500E+00
6.20E+01,2.018E+04,-1.573E-01,-8.838E+00,2.500E+00
6.30E+01,2.042E+04,-1.620E-01,-8.942E+00,2.500E+00
6.40E+01,2.065E+04,-1.635E-01,-9.039E+00,2.500E+00
6.50E+01,2.089E+04,-1.682E-01,-9.146E+00,2.500E+00
6.60E+01,2.113E+04,-1.722E-01,-9.254E+00,2.500E+00
6.70E+01,2.138E+04,-1.772E-01,-9.362E+00,2.500E+00
6.80E+01,2.163E+04,-1.805E-01,-9.470E+00,2.500E+00
6.90E+01,2.188E+04,-1.851E-01,-9.578E+00,2.500E+00
7.00E+01,2.213E+04,-1.874E-01,-9.689E+00,2.500E+00
7.10E+01,2.239E+04,-1.929E-01,-9.799E+00,2.500E+00
7.20E+01,2.265E+04,-1.955E-01,-9.914E+00,2.500E+00
7.30E+01,2.291E+04,-2.021E-01,-1.003E+01,2.500E+00
7.40E+01,2.317E+04,-2.072E-01,-1.014E+01,2.500E+00
7.50E+01,2.344E+04,-2.108E-01,-1.026E+01,2.500E+00
7.60E+01,2.371E+04,-2.177E-01,-1.037E+01,2.500E+00
7.70E+01,2.399E+04,-2.204E-01,-1.050E+01,2.500E+00
7.80E+01,2.427E+04,-2.275E-01,-1.061E+01,2.500E+00
7.90E+01,2.455E+04,-2.324E-01,-1.074E+01,2.500E+00
8.00E+01,2.483E+04,-2.404E-01,-1.086E+01,2.500E+00
8.10E+01,2.512E+04,-2.379E-01,-1.098E+01,2.500E+00
8.20E+01,2.541E+04,-2.445E-01,-1.109E+01,2.500E+00
8.30E+01,2.570E+04,-2.482E-01,-1.124E+01,2.500E+00
8.40E+01,2.600E+04,-2.603E-01,-1.136E+01,2.500E+00
8.50E+01,2.630E+04,-2.654E-01,-1.150E+01,2.500E+00
8.60E+01,2.661E+04,-2.700E-01,-1.163E+01,2.500E+00
8.70E+01,2.692E+04,-2.786E-01,-1.175E+01,2.500E+00
8.80E+01,2.723E+04,-2.862E-01,-1.189E+01,2.500E+00
8.90E+01,2.754E+04,-3.183E-01,-1.203E+01,2.500E+00
9.00E+01,2.786E+04,-3.223E-01,-1.215E+01,2.500E+00
9.10E+01,2.818E+04,-3.333E-01,-1.230E+01,2.500E+00
9.20E+01,2.851E+04,-3.398E-01,-1.245E+01,2.500E+00
9.30E+01,2.884E+04,-3.438E-01,-1.260E+01,2.500E+00
9.40E+01,2.917E+04,-3.347E-01,-1.273E+01,2.500E+00
9.50E+01,2.951E+04,-3.421E-01,-1.287E+01,2.500E+00
9.60E+01,2.985E+04,-3.497E-01,-1.302E+01,2.500E+00
9.70E+01,3.020E+04,-3.544E-01,-1.318E+01,2.500E+00
9.80E+01,3.055E+04,-3.656E-01,-1.332E+01,2.500E+00
9.90E+01,3.090E+04,-3.713E-01,-1.347E+01,2.500E+00
1.00E+02,3.126E+04,-3.833E-01,-1.362E+01,2.500E+00
1.01E+02,3.162E+04,-3.870E-01,-1.379E+01,2.500E+00
1.02E+02,3.199E+04,-3.998E-01,-1.394E+01,2.500E+00
1.03E+02,3.236E+04,-4.098E-01,-1.409E+01,2.500E+00
1.04E+02,3.273E+04,-4.192E-01,-1.426E+01,2.500E+00
1.05E+02,3.311E+04,-4.293E-01,-1.441E+01,2.500E+00
1.06E+02,3.350E+04,-4.441E-01,-1.458E+01,2.500E+00
1.07E+02,3.388E+04,-4.520E-01,-1.475E+01,2.500E+00
1.08E+02,3.428E+04,-4.596E-01,-1.490E+01,2.500E+00
1.09E+02,3.467E+04,-4.715E-01,-1.507E+01,2.500E+00
1.10E+02,3.508E+04,-4.853E-01,-1.525E+01,2.500E+00
1.11E+02,3.548E+04,-4.972E-01,-1.542E+01,2.500E+00
1.12E+02,3.589E+04,-5.116E-01,-1.559E+01,2.500E+00
1.13E+02,3.631E+04,-5.274E-01,-1.577E+01,2.500E+00
1.14E+02,3.673E+04,-5.355E-01,-1.595E+01,2.500E+00
1.15E+02,3.715E+04,-5.493E-01,-1.612E+01,2.500E+00
1.16E+02,3.758E+04,-5.591E-01,-1.631E+01,2.500E+00
1.17E+02,3.802E+04,-5.719E-01,-1.648E+01,2.500E+00
1.18E+02,3.846E+04,-5.917E-01,-1.666E+01,2.500E+00
1.19E+02,3.890E+04,-6.039E-01,-1.686E+01,2.500E+00
1.20E+02,3.936E+04,-6.205E-01,-1.703E+01,2.500E+00
1.21E+02,3.981E+04,-6.384E-01,-1.722E+01,2.500E+00
1.22E+02,4.027E+04,-6.513E-01,-1.743E+01,2.500E+00
1.23E+02,4.074E+04,-6.660E-01,-1.760E+01,2.500E+00
1.24E+02,4.121E+04,-6.819E-01,-1.780E+01,2.500E+00
1.25E+02,4.169E+04,-6.957E-01,-1.800E+01,2.500E+00
1.26E+02,4.217E+04,-7.166E-01,-1.819E+01,2.500E+00
1.27E+02,4.266E+04,-7.351E-01,-1.841E+01,2.500E+00
1.28E+02,4.315E+04,-7.482E-01,-1.859E+01,2.500E+00
1.29E+02,4.365E+04,-7.698E-01,-1.880E+01,2.500E+00
1.30E+02,4.416E+04,-7.834E-01,-1.901E+01,2.500E+00
1.31E+02,4.467E+04,-8.041E-01,-1.921E+01,2.500E+00
1.32E+02,4.519E+04,-8.249E-01,-1.942E+01,2.500E+00
1.33E+02,4.571E+04,-8.421E-01,-1.962E+01,2.500E+00
1.34E+02,4.624E+04,-8.675E-01,-1.984E+01,2.500E+00
1.35E+02,4.677E+04,-9.045E-01,-2.004E+01,2.500E+00
1.36E+02,4.732E+04,-9.252E-01,-2.027E+01,2.500E+00
1.37E+02,4.786E+04,-9.446E-01,-2.049E+01,2.500E+00
1.38E+02,4.842E+04,-9.726E-01,-2.070E+01,2.500E+00
1.39E+02,4.898E+04,-9.977E-01,-2.093E+01,2.500E+00
1.40E+02,4.955E+04,-1.023E+00,-2.114E+01,2.500E+00
1.41E+02,5.012E+04,-1.043E+00,-2.138E+01,2.500E+00
1.42E+02,5.070E+04,-1.069E+00,-2.158E+01,2.500E+00
1.43E+02,5.129E+04,-1.090E+00,-2.181E+01,2.500E+00
1.44E+02,5.188E+04,-1.116E+00,-2.204E+01,2.500E+00
1.45E+02,5.248E+04,-1.143E+00,-2.228E+01,2.500E+00
1.46E+02,5.309E+04,-1.168E+00,-2.249E+01,2.500E+00
1.47E+02,5.370E+04,-1.170E+00,-2.273E+01,2.500E+00
1.48E+02,5.433E+04,-1.198E+00,-2.295E+01,2.500E+00
1.49E+02,5.495E+04,-1.230E+00,-2.319E+01,2.500E+00
1.50E+02,5.559E+04,-1.259E+00,-2.342E+01,2.500E+00
1.51E+02,5.623E+04,-1.291E+00,-2.366E+01,2.500E+00
1.52E+02,5.689E+04,-1.320E+00,-2.389E+01,2.500E+00
1.53E+02,5.754E+04,-1.355E+00,-2.413E+01,2.500E+00
1.54E+02,5.821E+04,-1.387E+00,-2.436E+01,2.500E+00
1.55E+02,5.888E+04,-1.425E+00,-2.462E+01,2.500E+00
1.56E+02,5.957E+04,-1.461E+00,-2.484E+01,2.500E+00
1.57E+02,6.026E+04,-1.497E+00,-2.510E+01,2.500E+00
1.58E+02,6.095E+04,-1.533E+00,-2.532E+01,2.500E+00
1.59E+02,6.166E+04,-1.566E+00,-2.558E+01,2.500E+00
1.60E+02,6.237E+04,-1.608E+00,-2.582E+01,2.500E+00
1.61E+02,6.310E+04,-1.643E+00,-2.607E+01,2.500E+00
1.62E+02,6.383E+04,-1.681E+00,-2.629E+01,2.500E+00
1.63E+02,6.457E+04,-1.723E+00,-2.652E+01,2.500E+00
1.64E+02,6.531E+04,-1.767E+00,-2.677E+01,2.500E+00
1.65E+02,6.607E+04,-1.809E+00,-2.704E+01,2.500E+00
1.66E+02,6.683E+04,-1.848E+00,-2.728E+01,2.500E+00
1.67E+02,6.761E+04,-1.896E+00,-2.749E+01,2.500E+00
1.68E+02,6.839E+04,-1.944E+00,-2.774E+01,2.500E+00
1.69E+02,6.918E+04,-1.994E+00,-2.801E+01,2.500E+00
1.70E+02,6.998E+04,-2.004E+00,-2.824E+01,2.500E+00
1.71E+02,7.079E+04,-2.050E+00,-2.847E+01,2.500E+00
1.72E+02,7.161E+04,-2.103E+00,-2.873E+01,2.500E+00
1.73E+02,7.244E+04,-2.154E+00,-2.897E+01,2.500E+00
1.74E+02,7.328E+04,-2.202E+00,-2.919E+01,2.500E+00
1.75E+02,7.413E+04,-2.261E+00,-2.942E+01,2.500E+00
1.76E+02,7.499E+04,-2.310E+00,-2.968E+01,2.500E+00
1.77E+02,7.586E+04,-2.365E+00,-2.992E+01,2.500E+00
1.78E+02,7.674E+04,-2.420E+00,-3.013E+01,2.500E+00
1.79E+02,7.762E+04,-2.480E+00,-3.037E+01,2.500E+00
1.80E+02,7.852E+04,-2.541E+00,-3.061E+01,2.500E+00
1.81E+02,7.943E+04,-2.600E+00,-3.082E+01,2.500E+00
1.82E+02,8.035E+04,-2.665E+00,-3.102E+01,2.500E+00
1.83E+02,8.128E+04,-2.727E+00,-3.127E+01,2.500E+00
1.84E+02,8.222E+04,-2.786E+00,-3.149E+01,2.500E+00
1.85E+02,8.318E+04,-2.850E+00,-3.167E+01,2.500E+00
1.86E+02,8.414E+04,-2.919E+00,-3.190E+01,2.500E+00
1.87E+02,8.511E+04,-2.985E+00,-3.212E+01,2.500E+00
1.88E+02,8.610E+04,-3.051E+00,-3.228E+01,2.500E+00
1.89E+02,8.710E+04,-3.127E+00,-3.249E+01,2.500E+00
1.90E+02,8.810E+04,-3.195E+00,-3.270E+01,2.500E+00
1.91E+02,8.913E+04,-3.265E+00,-3.286E+01,2.500E+00
1.92E+02,9.016E+04,-3.347E+00,-3.304E+01,2.500E+00
1.93E+02,9.120E+04,-3.419E+00,-3.324E+01,2.500E+00
1.94E+02,9.226E+04,-3.497E+00,-3.338E+01,2.500E+00
1.95E+02,9.333E+04,-3.577E+00,-3.354E+01,2.500E+00
1.96E+02,9.441E+04,-3.653E+00,-3.372E+01,2.500E+00
1.97E+02,9.550E+04,-3.729E+00,-3.385E+01,2.500E+00
1.98E+02,9.661E+04,-3.816E+00,-3.399E+01,2.500E+00
1.99E+02,9.772E+04,-3.896E+00,-3.415E+01,2.500E+00
2.00E+02,9.886E+04,-3.965E+00,-3.426E+01,2.500E+00
2.01E+02,1.000E+05,-4.050E+00,-3.443E+01,2.500E+00
2.02E+02,1.012E+05,-4.137E+00,-3.452E+01,2.500E+00
2.03E+02,1.023E+05,-4.222E+00,-3.461E+01,2.500E+00
2.04E+02,1.035E+05,-4.315E+00,-3.470E+01,2.500E+00
2.05E+02,1.047E+05,-4.406E+00,-3.476E+01,2.500E+00
2.06E+02,1.059E+05,-4.502E+00,-3.486E+01,2.500E+00
2.07E+02,1.072E+05,-4.634E+00,-3.490E+01,2.500E+00
2.08E+02,1.084E+05,-4.729E+00,-3.496E+01,2.500E+00
2.09E+02,1.096E+05,-4.827E+00,-3.500E+01,2.500E+00
2.10E+02,1.109E+05,-4.922E+00,-3.501E+01,2.500E+00
2.11E+02,1.122E+05,-5.018E+00,-3.503E+01,2.500E+00
2.12E+02,1.135E+05,-5.121E+00,-3.502E+01,2.500E+00
2.13E+02,1.148E+05,-5.223E+00,-3.499E+01,2.500E+00
2.14E+02,1.161E+05,-5.325E+00,-3.497E+01,2.500E+00
2.15E+02,1.175E+05,-5.430E+00,-3.492E+01,2.500E+00
2.16E+02,1.189E+05,-5.531E+00,-3.486E+01,2.500E+00
2.17E+02,1.202E+05,-5.636E+00,-3.480E+01,2.500E+00
2.18E+02,1.216E+05,-5.745E+00,-3.469E+01,2.500E+00
2.19E+02,1.230E+05,-5.851E+00,-3.457E+01,2.500E+00
2.20E+02,1.245E+05,-5.954E+00,-3.444E+01,2.500E+00
2.21E+02,1.259E+05,-6.067E+00,-3.430E+01,2.500E+00
2.22E+02,1.274E+05,-6.176E+00,-3.414E+01,2.500E+00
2.23E+02,1.288E+05,-6.284E+00,-3.395E+01,2.500E+00
2.24E+02,1.303E+05,-6.390E+00,-3.376E+01,2.500E+00
2.25E+02,1.318E+05,-6.501E+00,-3.355E+01,2.500E+00
2.26E+02,1.334E+05,-6.614E+00,-3.329E+01,2.500E+00
2.27E+02,1.349E+05,-6.715E+00,-3.302E+01,2.500E+00
2.28E+02,1.365E+05,-6.823E+00,-3.274E+01,2.500E+00
2.29E+02,1.380E+05,-6.937E+00,-3.246E+01,2.500E+00
2.30E+02,1.396E+05,-7.044E+00,-3.212E+01,2.500E+00
2.31E+02,1.413E+05,-7.153E+00,-3.177E+01,2.500E+00
2.32E+02,1.429E+05,-7.263E+00,-3.138E+01,2.500E+00
2.33E+02,1.445E+05,-7.370E+00,-3.098E+01,2.500E+00
2.34E+02,1.462E+05,-7.480E+00,-3.058E+01,2.500E+00
2.35E+02,1.479E+05,-7.583E+00,-3.015E+01,2.500E+00
2.36E+02,1.496E+05,-7.693E+00,-2.968E+01,2.500E+00
2.37E+02,1.514E+05,-7.795E+00,-2.918E+01,2.500E+00
2.38E+02,1.531E+05,-7.898E+00,-2.867E+01,2.500E+00
2.39E+02,1.549E+05,-7.996E+00,-2.813E+01,2.500E+00
2.40E+02,1.567E+05,-8.096E+00,-2.758E+01,2.500E+00
2.41E+02,1.585E+05,-8.194E+00,-2.700E+01,2.500E+00
2.42E+02,1.603E+05,-8.291E+00,-2.640E+01,2.500E+00
2.43E+02,1.622E+05,-8.383E+00,-2.578E+01,2.500E+00
2.44E+02,1.641E+05,-8.473E+00,-2.512E+01,2.500E+00
2.45E+02,1.660E+05,-8.565E+00,-2.445E+01,2.500E+00
2.46E+02,1.679E+05,-8.646E+00,-2.377E+01,2.500E+00
2.47E+02,1.698E+05,-8.727E+00,-2.305E+01,2.500E+00
2.48E+02,1.718E+05,-8.805E+00,-2.232E+01,2.500E+00
2.49E+02,1.738E+05,-8.881E+00,-2.158E+01,2.500E+00
2.50E+02,1.758E+05,-8.952E+00,-2.082E+01,2.500E+00
2.51E+02,1.778E+05,-9.018E+00,-2.003E+01,2.500E+00
2.52E+02,1.799E+05,-9.079E+00,-1.924E+01,2.500E+00
2.53E+02,1.820E+05,-9.140E+00,-1.843E+01,2.500E+00
2.54E+02,1.841E+05,-9.192E+00,-1.761E+01,2.500E+00
2.55E+02,1.862E+05,-9.245E+00,-1.678E+01,2.500E+00
2.56E+02,1.884E+05,-9.290E+00,-1.593E+01,2.500E+00
2.57E+02,1.905E+05,-9.333E+00,-1.508E+01,2.500E+00
2.58E+02,1.928E+05,-9.370E+00,-1.422E+01,2.500E+00
2.59E+02,1.950E+05,-9.403E+00,-1.336E+01,2.500E+00
2.60E+02,1.972E+05,-9.433E+00,-1.249E+01,2.500E+00
2.61E+02,1.995E+05,-9.457E+00,-1.162E+01,2.500E+00
2.62E+02,2.018E+05,-9.480E+00,-1.074E+01,2.500E+00
2.63E+02,2.042E+05,-9.492E+00,-9.868E+00,2.500E+00
2.64E+02,2.065E+05,-9.501E+00,-9.022E+00,2.500E+00
2.65E+02,2.089E+05,-9.512E+00,-8.152E+00,2.500E+00
2.66E+02,2.113E+05,-9.512E+00,-7.287E+00,2.500E+00
2.67E+02,2.138E+05,-9.509E+00,-6.447E+00,2.500E+00
2.68E+02,2.163E+05,-9.500E+00,-5.600E+00,2.500E+00
2.69E+02,2.188E+05,-9.491E+00,-4.778E+00,2.500E+00
2.70E+02,2.213E+05,-9.477E+00,-3.947E+00,2.500E+00
2.71E+02,2.239E+05,-9.458E+00,-3.138E+00,2.500E+00
2.72E+02,2.265E+05,-9.430E+00,-2.352E+00,2.500E+00
2.73E+02,2.291E+05,-9.406E+00,-1.563E+00,2.500E+00
2.74E+02,2.317E+05,-9.377E+00,-7.968E-01,2.500E+00
2.75E+02,2.344E+05,-9.345E+00,-4.369E-02,2.500E+00
2.76E+02,2.371E+05,-9.311E+00,7.034E-01,2.500E+00
2.77E+02,2.399E+05,-9.272E+00,1.412E+00,2.500E+00
2.78E+02,2.427E+05,-9.227E+00,2.118E+00,2.500E+00
2.79E+02,2.455E+05,-9.186E+00,2.806E+00,2.500E+00
2.80E+02,2.483E+05,-9.139E+00,3.475E+00,2.500E+00
2.81E+02,2.512E+05,-9.092E+00,4.123E+00,2.500E+00
2.82E+02,2.541E+05,-9.041E+00,4.761E+00,2.500E+00
2.83E+02,2.570E+05,-8.990E+00,5.377E+00,2.500E+00
2.84E+02,2.600E+05,-8.936E+00,5.967E+00,2.500E+00
2.85E+02,2.630E+05,-8.882E+00,6.545E+00,2.500E+00
2.86E+02,2.661E+05,-8.822E+00,7.111E+00,2.500E+00
2.87E+02,2.692E+05,-8.766E+00,7.658E+00,2.500E+00
2.88E+02,2.723E+05,-8.705E+00,8.181E+00,2.500E+00
2.89E+02,2.754E+05,-8.647E+00,8.685E+00,2.500E+00
2.90E+02,2.786E+05,-8.582E+00,9.181E+00,2.500E+00
2.91E+02,2.818E+05,-8.522E+00,9.657E+00,2.500E+00
2.92E+02,2.851E+05,-8.458E+00,1.011E+01,2.500E+00
2.93E+02,2.884E+05,-8.397E+00,1.055E+01,2.500E+00
2.94E+02,2.917E+05,-8.335E+00,1.097E+01,2.500E+00
2.95E+02,2.951E+05,-8.269E+00,1.138E+01,2.500E+00
2.96E+02,2.985E+05,-8.208E+00,1.178E+01,2.500E+00
2.97E+02,3.020E+05,-8.141E+00,1.216E+01,2.500E+00
2.98E+02,3.055E+05,-8.076E+00,1.252E+01,2.500E+00
2.99E+02,3.090E+05,-8.011E+00,1.287E+01,2.500E+00
3.00E+02,3.126E+05,-7.951E+00,1.320E+01,2.500E+00
3.01E+02,3.162E+05,-7.883E+00,1.351E+01,2.500E+00
3.02E+02,3.199E+05,-7.823E+00,1.383E+01,2.500E+00
3.03E+02,3.236E+05,-7.755E+00,1.412E+01,2.500E+00
3.04E+02,3.273E+05,-7.693E+00,1.441E+01,2.500E+00
3.05E+02,3.311E+05,-7.628E+00,1.468E+01,2.500E+00
3.06E+02,3.350E+05,-7.567E+00,1.494E+01,2.500E+00
3.07E+02,3.388E+05,-7.501E+00,1.519E+01,2.500E+00
3.08E+02,3.428E+05,-7.440E+00,1.542E+01,2.500E+00
3.09E+02,3.467E+05,-7.377E+00,1.565E+01,2.500E+00
3.10E+02,3.508E+05,-7.314E+00,1.587E+01,2.500E+00
3.11E+02,3.548E+05,-7.253E+00,1.607E+01,2.500E+00
3.12E+02,3.589E+05,-7.193E+00,1.627E+01,2.500E+00
3.13E+02,3.631E+05,-7.130E+00,1.646E+01,2.500E+00
3.14E+02,3.673E+05,-7.070E+00,1.664E+01,2.500E+00
3.15E+02,3.715E+05,-7.009E+00,1.680E+01,2.500E+00
3.16E+02,3.758E+05,-6.951E+00,1.696E+01,2.500E+00
3.17E+02,3.802E+05,-6.895E+00,1.712E+01,2.500E+00
3.18E+02,3.846E+05,-6.835E+00,1.726E+01,2.500E+00
3.19E+02,3.890E+05,-6.774E+00,1.739E+01,2.500E+00
3.20E+02,3.936E+05,-6.719E+00,1.753E+01,2.500E+00
3.21E+02,3.981E+05,-6.662E+00,1.765E+01,2.500E+00
3.22E+02,4.027E+05,-6.607E+00,1.777E+01,2.500E+00
3.23E+02,4.074E+05,-6.548E+00,1.787E+01,2.500E+00
3.24E+02,4.121E+05,-6.497E+00,1.796E+01,2.500E+00
3.25E+02,4.169E+05,-6.440E+00,1.807E+01,2.500E+00
3.26E+02,4.217E+05,-6.387E+00,1.815E+01,2.500E+00
3.27E+02,4.266E+05,-6.332E+00,1.824E+01,2.500E+00
3.28E+02,4.315E+05,-6.282E+00,1.832E+01,2.500E+00
3.29E+02,4.365E+05,-6.232E+00,1.840E+01,2.500E+00
3.30E+02,4.416E+05,-6.178E+00,1.847E+01,2.500E+00
3.31E+02,4.467E+05,-6.125E+00,1.854E+01,2.500E+00
3.32E+02,4.519E+05,-6.071E+00,1.859E+01,2.500E+00
3.33E+02,4.571E+05,-6.028E+00,1.866E+01,2.500E+00
3.34E+02,4.624E+05,-5.974E+00,1.871E+01,2.500E+00
3.35E+02,4.677E+05,-5.925E+00,1.876E+01,2.500E+00
3.36E+02,4.732E+05,-5.877E+00,1.881E+01,2.500E+00
3.37E+02,4.786E+05,-5.829E+00,1.884E+01,2.500E+00
3.38E+02,4.842E+05,-5.781E+00,1.888E+01,2.500E+00
3.39E+02,4.898E+05,-5.737E+00,1.892E+01,2.500E+00
3.40E+02,4.955E+05,-5.690E+00,1.894E+01,2.500E+00
3.41E+02,5.012E+05,-5.644E+00,1.896E+01,2.500E+00
3.42E+02,5.070E+05,-5.600E+00,1.898E+01,2.500E+00
3.43E+02,5.129E+05,-5.555E+00,1.901E+01,2.500E+00
3.44E+02,5.188E+05,-5.511E+00,1.902E+01,2.500E+00
3.45E+02,5.248E+05,-5.466E+00,1.903E+01,2.500E+00
3.46E+02,5.309E+05,-5.423E+00,1.905E+01,2.500E+00
3.47E+02,5.370E+05,-5.379E+00,1.906E+01,2.500E+00
3.48E+02,5.433E+05,-5.338E+00,1.906E+01,2.500E+00
3.49E+02,5.495E+05,-5.295E+00,1.906E+01,2.500E+00
3.50E+02,5.559E+05,-5.255E+00,1.907E+01,2.500E+00
3.51E+02,5.623E+05,-5.214E+00,1.907E+01,2.500E+00
3.52E+02,5.689E+05,-5.171E+00,1.906E+01,2.500E+00
3.53E+02,5.754E+05,-5.131E+00,1.905E+01,2.500E+00
3.54E+02,5.821E+05,-5.093E+00,1.904E+01,2.500E+00
3.55E+02,5.888E+05,-5.051E+00,1.903E+01,2.500E+00
3.56E+02,5.957E+05,-5.015E+00,1.902E+01,2.500E+00
3.57E+02,6.026E+05,-4.975E+00,1.901E+01,2.500E+00
3.58E+02,6.095E+05,-4.938E+00,1.900E+01,2.500E+00
3.59E+02,6.166E+05,-4.898E+00,1.897E+01,2.500E+00
3.60E+02,6.237E+05,-4.860E+00,1.895E+01,2.500E+00
3.61E+02,6.310E+05,-4.825E+00,1.893E+01,2.500E+00
3.62E+02,6.383E+05,-4.790E+00,1.891E+01,2.500E+00
3.63E+02,6.457E+05,-4.750E+00,1.889E+01,2.500E+00
3.64E+02,6.531E+05,-4.717E+00,1.886E+01,2.500E+00
3.65E+02,6.607E+05,-4.682E+00,1.884E+01,2.500E+00
3.66E+02,6.683E+05,-4.647E+00,1.881E+01,2.500E+00
3.67E+02,6.761E+05,-4.606E+00,1.878E+01,2.500E+00
3.68E+02,6.839E+05,-4.576E+00,1.875E+01,2.500E+00
3.69E+02,6.918E+05,-4.542E+00,1.872E+01,2.500E+00
3.70E+02,6.998E+05,-4.509E+00,1.868E+01,2.500E+00
3.71E+02,7.079E+05,-4.472E+00,1.864E+01,2.500E+00
3.72E+02,7.161E+05,-4.443E+00,1.861E+01,2.500E+00
3.73E+02,7.244E+05,-4.410E+00,1.857E+01,2.500E+00
3.74E+02,7.328E+05,-4.377E+00,1.854E+01,2.500E+00
3.75E+02,7.413E+05,-4.344E+00,1.850E+01,2.500E+00
3.76E+02,7.499E+05,-4.312E+00,1.846E+01,2.500E+00
3.77E+02,7.586E+05,-4.283E+00,1.842E+01,2.500E+00
3.78E+02,7.674E+05,-4.248E+00,1.837E+01,2.500E+00
3.79E+02,7.762E+05,-4.221E+00,1.833E+01,2.500E+00
3.80E+02,7.852E+05,-4.189E+00,1.829E+01,2.500E+00
3.81E+02,7.943E+05,-4.155E+00,1.825E+01,2.500E+00
3.82E+02,8.035E+05,-4.128E+00,1.820E+01,2.500E+00
3.83E+02,8.128E+05,-4.099E+00,1.816E+01,2.500E+00
3.84E+02,8.222E+05,-4.071E+00,1.811E+01,2.500E+00
3.85E+02,8.318E+05,-4.042E+00,1.806E+01,2.500E+00
3.86E+02,8.414E+05,-4.011E+00,1.801E+01,2.500E+00
3.87E+02,8.511E+05,-3.982E+00,1.796E+01,2.500E+00
3.88E+02,8.610E+05,-3.954E+00,1.792E+01,2.500E+00
3.89E+02,8.710E+05,-3.924E+00,1.787E+01,2.500E+00
3.90E+02,8.810E+05,-3.902E+00,1.782E+01,2.500E+00
3.91E+02,8.913E+05,-3.877E+00,1.777E+01,2.500E+00
3.92E+02,9.016E+05,-3.844E+00,1.772E+01,2.500E+00
3.93E+02,9.120E+05,-3.819E+00,1.767E+01,2.500E+00
