in Sa,Frequency in Hz,Gain in dB,Phase in °,Amplitude in Vpp
1.00E+00,1.000E+01,-6.029E-03,-9.825E-01,1.000E-01
2.00E+00,1.023E+01,9.764E-04,-1.040E+00,1.000E-01
3.00E+00,1.047E+01,1.834E-03,-1.055E+00,1.000E-01
4.00E+00,1.072E+01,4.776E-03,-1.090E+00,1.000E-01
5.00E+00,1.096E+01,-2.494E-03,-1.100E+00,1.000E-01
6.00E+00,1.122E+01,2.760E-03,-1.122E+00,1.000E-01
7.00E+00,1.148E+01,5.214E-03,-1.179E+00,1.000E-01
8.00E+00,1.175E+01,5.867E-03,-1.180E+00,1.000E-01
9.00E+00,1.202E+01,4.030E-03,-1.228E+00,1.000E-01
1.00E+01,1.230E+01,-6.819E-02,-1.213E+00,1.000E-01
1.10E+01,1.259E+01,-7.069E-02,-1.266E+00,1.000E-01
1.20E+01,1.288E+01,9.998E-03,-1.355E+00,1.000E-01
1.30E+01,1.318E+01,1.350E-02,-1.361E+00,1.000E-01
1.40E+01,1.349E+01,1.621E-02,-1.376E+00,1.000E-01
1.50E+01,1.380E+01,-7.320E-02,-1.339E+00,1.000E-01
1.60E+01,1.413E+01,-7.638E-02,-1.418E+00,1.000E-01
1.70E+01,1.445E+01,1.172E-02,-1.500E+00,1.000E-01
1.80E+01,1.479E+01,-7.753E-02,-1.451E+00,1.000E-01
1.90E+01,1.514E+01,-8.272E-02,-1.456E+00,1.000E-01
2.00E+01,1.549E+01,2.035E-02,-1.612E+00,1.000E-01
2.10E+01,1.585E+01,-8.088E-02,-1.508E+00,1.000E-01
2.20E+01,1.622E+01,2.046E-02,-1.652E+00,1.000E-01
2.30E+01,1.660E+01,1.890E-02,-1.758E+00,1.000E-01
2.40E+01,1.698E+01,2.309E-02,-1.763E+00,1.000E-01
2.50E+01,1.738E+01,2.351E-02,-1.793E+00,1.000E-01
2.60E+01,1.778E+01,-9.007E-02,-1.694E+00,1.000E-01
2.70E+01,1.820E+01,1.660E-02,-1.900E+00,1.000E-01
2.80E+01,1.862E+01,2.815E-02,-1.910E+00,1.000E-01
2.90E+01,1.905E+01,-8.579E-02,-1.813E+00,1.000E-01
3.00E+01,1.950E+01,3.071E-02,-2.011E+00,1.000E-01
3.10E+01,1.995E+01,3.061E-02,-2.052E+00,1.000E-01
3.20E+01,2.042E+01,3.192E-02,-2.132E+00,1.000E-01
3.30E+01,2.089E+01,3.713E-02,-2.191E+00,1.000E-01
3.40E+01,2.138E+01,3.668E-02,-2.218E+00,1.000E-01
3.50E+01,2.188E+01,-9.889E-02,-2.067E+00,1.000E-01
3.60E+01,2.239E+01,-1.073E-01,-2.152E+00,1.000E-01
3.70E+01,2.291E+01,3.781E-02,-2.394E+00,1.000E-01
3.80E+01,2.344E+01,-9.612E-02,-2.177E+00,1.000E-01
3.90E+01,2.399E+01,-1.059E-01,-2.236E+00,1.000E-01
4.00E+01,2.455E+01,-1.089E-01,-2.259E+00,1.000E-01
4.10E+01,2.512E+01,-1.087E-01,-2.315E+00,1.000E-01
4.20E+01,2.570E+01,3.887E-02,-2.806E+00,1.000E-01
4.30E+01,2.630E+01,-1.119E-01,-2.402E+00,1.000E-01
4.40E+01,2.692E+01,-1.063E-01,-2.460E+00,1.000E-01
4.50E+01,2.754E+01,-1.134E-01,-2.506E+00,1.000E-01
4.60E+01,2.818E+01,4.291E-02,-3.007E+00,1.000E-01
4.70E+01,2.884E+01,-1.171E-01,-2.620E+00,1.000E-01
4.80E+01,2.951E+01,5.413E-02,-3.207E+00,1.000E-01
4.90E+01,3.020E+01,-4.270E-02,-3.062E+00,1.000E-01
5.00E+01,3.090E+01,-4.746E-02,-3.108E+00,1.000E-01
5.10E+01,3.162E+01,-4.609E-02,-3.185E+00,1.000E-01
5.20E+01,3.236E+01,-4.729E-02,-3.280E+00,1.000E-01
5.30E+01,3.311E+01,-4.625E-02,-3.341E+00,1.000E-01
5.40E+01,3.388E+01,-4.673E-02,-3.425E+00,1.000E-01
5.50E+01,3.467E+01,-4.705E-02,-3.539E+00,1.000E-01
5.60E+01,3.548E+01,-4.638E-02,-3.554E+00,1.000E-01
5.70E+01,3.631E+01,-5.091E-02,-3.628E+00,1.000E-01
5.80E+01,3.715E+01,-5.013E-02,-3.756E+00,1.000E-01
5.90E+01,3.802E+01,-5.102E-02,-3.811E+00,1.000E-01
6.00E+01,3.890E+01,-5.087E-02,-3.954E+00,1.000E-01
6.10E+01,3.981E+01,-5.388E-02,-4.005E+00,1.000E-01
6.20E+01,4.074E+01,-5.099E-02,-4.093E+00,1.000E-01
6.30E+01,4.169E+01,-5.348E-02,-4.240E+00,1.000E-01
6.40E+01,4.266E+01,-5.724E-02,-4.309E+00,1.000E-01
6.50E+01,4.365E+01,-5.755E-02,-4.464E+00,1.000E-01
6.60E+01,4.467E+01,-6.025E-02,-4.557E+00,1.000E-01
6.70E+01,4.571E+01,-6.303E-02,-4.608E+00,1.000E-01
6.80E+01,4.677E+01,-6.171E-02,-4.712E+00,1.000E-01
6.90E+01,4.786E+01,-6.585E-02,-4.850E+00,1.000E-01
7.00E+01,4.898E+01,-6.219E-02,-4.949E+00,1.000E-01
7.10E+01,5.012E+01,-7.106E-02,-5.060E+00,1.000E-01
7.20E+01,5.129E+01,-6.897E-02,-5.161E+00,1.000E-01
7.30E+01,5.248E+01,-7.234E-02,-5.278E+00,1.000E-01
7.40E+01,5.370E+01,-6.857E-02,-5.402E+00,1.000E-01
7.50E+01,5.495E+01,-7.762E-02,-5.536E+00,1.000E-01
7.60E+01,5.623E+01,-7.856E-02,-5.641E+00,1.000E-01
7.70E+01,5.754E+01,-7.908E-02,-5.763E+00,1.000E-01
7.80E+01,5.888E+01,-7.936E-02,-5.920E+00,1.000E-01
7.90E+01,6.026E+01,-8.531E-02,-6.067E+00,1.000E-01
8.00E+01,6.166E+01,-8.235E-02,-6.204E+00,1.000E-01
8.10E+01,6.310E+01,-8.628E-02,-6.356E+00,1.000E-01
8.20E+01,6.457E+01,-9.420E-02,-6.500E+00,1.000E-01
8.30E+01,6.607E+01,-9.210E-02,-6.634E+00,1.000E-01
8.40E+01,6.761E+01,-9.740E-02,-6.795E+00,1.000E-01
8.50E+01,6.918E+01,-1.037E-01,-6.938E+00,1.000E-01
8.60E+01,7.079E+01,-1.036E-01,-7.084E+00,1.000E-01
8.70E+01,7.244E+01,-1.053E-01,-7.250E+00,1.000E-01
8.80E+01,7.413E+01,-1.089E-01,-7.458E+00,1.000E-01
8.90E+01,7.586E+01,-1.166E-01,-7.612E+00,1.000E-01
9.00E+01,7.762E+01,-1.166E-01,-7.774E+00,1.000E-01
9.10E+01,7.943E+01,-1.160E-01,-7.958E+00,1.000E-01
9.20E+01,8.128E+01,-1.194E-01,-8.145E+00,1.000E-01
9.30E+01,8.318E+01,-1.280E-01,-8.315E+00,1.000E-01
9.40E+01,8.511E+01,-1.328E-01,-8.562E+00,1.000E-01
9.50E+01,8.710E+01,-1.388E-01,-8.742E+00,1.000E-01
9.60E+01,8.913E+01,-1.493E-01,-8.917E+00,1.000E-01
9.70E+01,9.120E+01,-1.470E-01,-9.104E+00,1.000E-01
9.80E+01,9.333E+01,-1.529E-01,-9.322E+00,1.000E-01
9.90E+01,9.550E+01,-1.606E-01,-9.524E+00,1.000E-01
1.00E+02,9.772E+01,-1.662E-01,-9.750E+00,1.000E-01
1.01E+02,1.000E+02,-1.638E-01,-9.945E+00,1.000E-01
1.02E+02,1.023E+02,-1.795E-01,-1.016E+01,1.000E-01
1.03E+02,1.047E+02,-1.832E-01,-1.041E+01,1.000E-01
1.04E+02,1.072E+02,-1.926E-01,-1.065E+01,1.000E-01
1.05E+02,1.096E+02,-1.963E-01,-1.086E+01,1.000E-01
1.06E+02,1.122E+02,-2.026E-01,-1.120E+01,1.000E-01
1.07E+02,1.148E+02,-2.106E-01,-1.138E+01,1.000E-01
1.08E+02,1.175E+02,-2.166E-01,-1.166E+01,1.000E-01
1.09E+02,1.202E+02,-2.294E-01,-1.187E+01,1.000E-01
1.10E+02,1.230E+02,-2.378E-01,-1.221E+01,1.000E-01
1.11E+02,1.259E+02,-2.436E-01,-1.246E+01,1.000E-01
1.12E+02,1.288E+02,-2.551E-01,-1.270E+01,1.000E-01
1.13E+02,1.318E+02,-2.642E-01,-1.302E+01,1.000E-01
1.14E+02,1.349E+02,-2.739E-01,-1.330E+01,1.000E-01
1.15E+02,1.380E+02,-2.878E-01,-1.360E+01,1.000E-01
1.16E+02,1.413E+02,-3.023E-01,-1.389E+01,1.000E-01
1.17E+02,1.445E+02,-3.126E-01,-1.423E+01,1.000E-01
1.18E+02,1.479E+02,-3.190E-01,-1.455E+01,1.000E-01
1.19E+02,1.514E+02,-3.347E-01,-1.483E+01,1.000E-01
1.20E+02,1.549E+02,-3.550E-01,-1.521E+01,1.000E-01
1.21E+02,1.585E+02,-3.726E-01,-1.555E+01,1.000E-01
1.22E+02,1.622E+02,-3.758E-01,-1.586E+01,1.000E-01
1.23E+02,1.660E+02,-3.935E-01,-1.622E+01,1.000E-01
1.24E+02,1.698E+02,-4.124E-01,-1.657E+01,1.000E-01
1.25E+02,1.738E+02,-4.317E-01,-1.692E+01,1.000E-01
1.26E+02,1.778E+02,-4.546E-01,-1.732E+01,1.000E-01
1.27E+02,1.820E+02,-4.623E-01,-1.768E+01,1.000E-01
1.28E+02,1.862E+02,-4.841E-01,-1.807E+01,1.000E-01
1.29E+02,1.905E+02,-4.986E-01,-1.844E+01,1.000E-01
1.30E+02,1.950E+02,-5.198E-01,-1.881E+01,1.000E-01
1.31E+02,1.995E+02,-5.496E-01,-1.921E+01,1.000E-01
1.32E+02,2.042E+02,-5.694E-01,-1.970E+01,1.000E-01
1.33E+02,2.089E+02,-5.966E-01,-2.006E+01,1.000E-01
1.34E+02,2.138E+02,-6.156E-01,-2.049E+01,1.000E-01
1.35E+02,2.188E+02,-6.383E-01,-2.092E+01,1.000E-01
1.36E+02,2.239E+02,-6.663E-01,-2.132E+01,1.000E-01
1.37E+02,2.291E+02,-7.054E-01,-2.182E+01,1.000E-01
1.38E+02,2.344E+02,-7.224E-01,-2.226E+01,1.000E-01
1.39E+02,2.399E+02,-7.504E-01,-2.266E+01,1.000E-01
1.40E+02,2.455E+02,-7.908E-01,-2.327E+01,1.000E-01
1.41E+02,2.512E+02,-8.236E-01,-2.368E+01,1.000E-01
1.42E+02,2.570E+02,-8.524E-01,-2.417E+01,1.000E-01
1.43E+02,2.630E+02,-8.842E-01,-2.467E+01,1.000E-01
1.44E+02,2.692E+02,-9.199E-01,-2.517E+01,1.000E-01
1.45E+02,2.754E+02,-9.540E-01,-2.569E+01,1.000E-01
1.46E+02,2.818E+02,-9.978E-01,-2.618E+01,1.000E-01
1.47E+02,2.884E+02,-1.037E+00,-2.669E+01,1.000E-01
1.48E+02,2.951E+02,-1.081E+00,-2.734E+01,1.000E-01
1.49E+02,3.020E+02,-1.124E+00,-2.786E+01,1.000E-01
1.50E+02,3.090E+02,-1.158E+00,-2.830E+01,1.000E-01
1.51E+02,3.162E+02,-1.214E+00,-2.888E+01,1.000E-01
1.52E+02,3.236E+02,-1.264E+00,-2.944E+01,1.000E-01
1.53E+02,3.311E+02,-1.314E+00,-3.001E+01,1.000E-01
1.54E+02,3.388E+02,-1.360E+00,-3.057E+01,1.000E-01
1.55E+02,3.467E+02,-1.416E+00,-3.116E+01,1.000E-01
1.56E+02,3.548E+02,-1.473E+00,-3.172E+01,1.000E-01
1.57E+02,3.631E+02,-1.523E+00,-3.242E+01,1.000E-01
1.58E+02,3.715E+02,-1.587E+00,-3.292E+01,1.000E-01
1.59E+02,3.802E+02,-1.649E+00,-3.356E+01,1.000E-01
1.60E+02,3.890E+02,-1.704E+00,-3.414E+01,1.000E-01
1.61E+02,3.981E+02,-1.776E+00,-3.478E+01,1.000E-01
1.62E+02,4.074E+02,-1.859E+00,-3.543E+01,1.000E-01
1.63E+02,4.169E+02,-1.909E+00,-3.597E+01,1.000E-01
1.64E+02,4.266E+02,-1.967E+00,-3.654E+01,1.000E-01
1.65E+02,4.365E+02,-2.057E+00,-3.729E+01,1.000E-01
1.66E+02,4.467E+02,-2.122E+00,-3.795E+01,1.000E-01
1.67E+02,4.571E+02,-2.209E+00,-3.843E+01,1.000E-01
1.68E+02,4.677E+02,-2.281E+00,-3.908E+01,1.000E-01
1.69E+02,4.786E+02,-2.375E+00,-3.987E+01,1.000E-01
1.70E+02,4.898E+02,-2.447E+00,-4.044E+01,1.000E-01
1.71E+02,5.012E+02,-2.546E+00,-4.102E+01,1.000E-01
1.72E+02,5.129E+02,-2.633E+00,-4.167E+01,1.000E-01
1.73E+02,5.248E+02,-2.707E+00,-4.235E+01,1.000E-01
1.74E+02,5.370E+02,-2.807E+00,-4.298E+01,1.000E-01
1.75E+02,5.495E+02,-2.904E+00,-4.361E+01,1.000E-01
1.76E+02,5.623E+02,-2.996E+00,-4.432E+01,1.000E-01
1.77E+02,5.754E+02,-3.091E+00,-4.501E+01,1.000E-01
1.78E+02,5.888E+02,-3.198E+00,-4.557E+01,1.000E-01
1.79E+02,6.026E+02,-3.299E+00,-4.618E+01,1.000E-01
1.80E+02,6.166E+02,-3.400E+00,-4.693E+01,1.000E-01
1.81E+02,6.310E+02,-3.503E+00,-4.764E+01,1.000E-01
1.82E+02,6.457E+02,-3.619E+00,-4.837E+01,1.000E-01
1.83E+02,6.607E+02,-3.729E+00,-4.886E+01,1.000E-01
1.84E+02,6.761E+02,-3.844E+00,-4.956E+01,1.000E-01
1.85E+02,6.918E+02,-3.971E+00,-5.017E+01,1.000E-01
1.86E+02,7.079E+02,-4.075E+00,-5.075E+01,1.000E-01
1.87E+02,7.244E+02,-4.206E+00,-5.131E+01,1.000E-01
1.88E+02,7.413E+02,-4.320E+00,-5.214E+01,1.000E-01
1.89E+02,7.586E+02,-4.432E+00,-5.271E+01,1.000E-01
1.90E+02,7.762E+02,-4.557E+00,-5.335E+01,1.000E-01
1.91E+02,7.943E+02,-4.712E+00,-5.395E+01,1.000E-01
1.92E+02,8.128E+02,-4.842E+00,-5.466E+01,1.000E-01
1.93E+02,8.318E+02,-4.977E+00,-5.518E+01,1.000E-01
1.94E+02,8.511E+02,-5.134E+00,-5.590E+01,1.000E-01
1.95E+02,8.710E+02,-5.235E+00,-5.648E+01,1.000E-01
1.96E+02,8.913E+02,-5.366E+00,-5.702E+01,1.000E-01
1.97E+02,9.120E+02,-5.530E+00,-5.754E+01,1.000E-01
1.98E+02,9.333E+02,-5.661E+00,-5.811E+01,1.000E-01
1.99E+02,9.550E+02,-5.806E+00,-5.868E+01,1.000E-01
2.00E+02,9.772E+02,-5.949E+00,-5.933E+01,1.000E-01
2.01E+02,1.000E+03,-6.105E+00,-5.977E+01,1.000E-01
2.02E+02,1.023E+03,-6.268E+00,-6.042E+01,1.000E-01
2.03E+02,1.047E+03,-6.417E+00,-6.096E+01,1.000E-01
2.04E+02,1.072E+03,-6.569E+00,-6.150E+01,1.000E-01
2.05E+02,1.096E+03,-6.737E+00,-6.202E+01,1.000E-01
2.06E+02,1.122E+03,-6.887E+00,-6.268E+01,1.000E-01
2.07E+02,1.148E+03,-7.049E+00,-6.317E+01,1.000E-01
2.08E+02,1.175E+03,-7.215E+00,-6.385E+01,1.000E-01
2.09E+02,1.202E+03,-7.351E+00,-6.426E+01,1.000E-01
2.10E+02,1.230E+03,-7.509E+00,-6.481E+01,1.000E-01
2.11E+02,1.259E+03,-7.699E+00,-6.522E+01,1.000E-01
2.12E+02,1.288E+03,-7.850E+00,-6.579E+01,1.000E-01
2.13E+02,1.318E+03,-8.007E+00,-6.635E+01,1.000E-01
2.14E+02,1.349E+03,-8.196E+00,-6.662E+01,1.000E-01
2.15E+02,1.380E+03,-8.358E+00,-6.722E+01,1.000E-01
2.16E+02,1.413E+03,-8.518E+00,-6.755E+01,1.000E-01
2.17E+02,1.445E+03,-8.670E+00,-6.803E+01,1.000E-01
2.18E+02,1.479E+03,-8.857E+00,-6.839E+01,1.000E-01
2.19E+02,1.514E+03,-9.043E+00,-6.886E+01,1.000E-01
2.20E+02,1.549E+03,-9.207E+00,-6.925E+01,1.000E-01
2.21E+02,1.585E+03,-9.381E+00,-6.988E+01,1.000E-01
2.22E+02,1.622E+03,-9.564E+00,-7.023E+01,1.000E-01
2.23E+02,1.660E+03,-9.751E+00,-7.056E+01,1.000E-01
2.24E+02,1.698E+03,-9.909E+00,-7.108E+01,1.000E-01
2.25E+02,1.738E+03,-1.010E+01,-7.140E+01,1.000E-01
2.26E+02,1.778E+03,-1.029E+01,-7.176E+01,1.000E-01
2.27E+02,1.820E+03,-1.046E+01,-7.213E+01,1.000E-01
2.28E+02,1.862E+03,-1.064E+01,-7.253E+01,1.000E-01
2.29E+02,1.905E+03,-1.081E+01,-7.298E+01,1.000E-01
2.30E+02,1.950E+03,-1.102E+01,-7.335E+01,1.000E-01
2.31E+02,1.995E+03,-1.119E+01,-7.358E+01,1.000E-01
2.32E+02,2.042E+03,-1.136E+01,-7.387E+01,1.000E-01
2.33E+02,2.089E+03,-1.156E+01,-7.446E+01,1.000E-01
2.34E+02,2.138E+03,-1.177E+01,-7.475E+01,1.000E-01
2.35E+02,2.188E+03,-1.192E+01,-7.495E+01,1.000E-01
2.36E+02,2.239E+03,-1.212E+01,-7.525E+01,1.000E-01
2.37E+02,2.291E+03,-1.230E+01,-7.552E+01,1.000E-01
2.38E+02,2.344E+03,-1.249E+01,-7.584E+01,1.000E-01
2.39E+02,2.399E+03,-1.265E+01,-7.613E+01,1.000E-01
2.40E+02,2.455E+03,-1.285E+01,-7.641E+01,1.000E-01
2.41E+02,2.512E+03,-1.306E+01,-7.678E+01,1.000E-01
2.42E+02,2.570E+03,-1.325E+01,-7.700E+01,1.000E-01
2.43E+02,2.630E+03,-1.345E+01,-7.715E+01,1.000E-01
2.44E+02,2.692E+03,-1.361E+01,-7.774E+01,1.000E-01
2.45E+02,2.754E+03,-1.381E+01,-7.783E+01,1.000E-01
2.46E+02,2.818E+03,-1.400E+01,-7.815E+01,1.000E-01
2.47E+02,2.884E+03,-1.420E+01,-7.834E+01,1.000E-01
2.48E+02,2.951E+03,-1.437E+01,-7.859E+01,1.000E-01
2.49E+02,3.020E+03,-1.457E+01,-7.888E+01,1.000E-01
2.50E+02,3.090E+03,-1.478E+01,-7.912E+01,1.000E-01
2.51E+02,3.162E+03,-1.496E+01,-7.937E+01,1.000E-01
2.52E+02,3.236E+03,-1.516E+01,-7.949E+01,1.000E-01
2.53E+02,3.311E+03,-1.533E+01,-7.970E+01,1.000E-01
2.54E+02,3.388E+03,-1.551E+01,-7.998E+01,1.000E-01
2.55E+02,3.467E+03,-1.572E+01,-7.997E+01,1.000E-01
2.56E+02,3.548E+03,-1.593E+01,-8.039E+01,1.000E-01
2.57E+02,3.631E+03,-1.611E+01,-8.088E+01,1.000E-01
2.58E+02,3.715E+03,-1.631E+01,-8.091E+01,1.000E-01
2.59E+02,3.802E+03,-1.650E+01,-8.106E+01,1.000E-01
2.60E+02,3.890E+03,-1.673E+01,-8.117E+01,1.000E-01
2.61E+02,3.981E+03,-1.689E+01,-8.127E+01,1.000E-01
2.62E+02,4.074E+03,-1.710E+01,-8.164E+01,1.000E-01
2.63E+02,4.169E+03,-1.729E+01,-8.162E+01,1.000E-01
2.64E+02,4.266E+03,-1.746E+01,-8.176E+01,1.000E-01
2.65E+02,4.365E+03,-1.765E+01,-8.196E+01,1.000E-01
2.66E+02,4.467E+03,-1.783E+01,-8.221E+01,1.000E-01
2.67E+02,4.571E+03,-1.806E+01,-8.239E+01,1.000E-01
2.68E+02,4.677E+03,-1.825E+01,-8.260E+01,1.000E-01
2.69E+02,4.786E+03,-1.843E+01,-8.254E+01,1.000E-01
2.70E+02,4.898E+03,-1.866E+01,-8.319E+01,1.000E-01
2.71E+02,5.012E+03,-1.884E+01,-8.294E+01,1.000E-01
2.72E+02,5.129E+03,-1.903E+01,-8.316E+01,1.000E-01
2.73E+02,5.248E+03,-1.926E+01,-8.355E+01,1.000E-01
2.74E+02,5.370E+03,-1.939E+01,-8.334E+01,1.000E-01
2.75E+02,5.495E+03,-1.960E+01,-8.372E+01,1.000E-01
2.76E+02,5.623E+03,-1.985E+01,-8.391E+01,1.000E-01
2.77E+02,5.754E+03,-2.005E+01,-8.397E+01,1.000E-01
2.78E+02,5.888E+03,-2.020E+01,-8.425E+01,1.000E-01
2.79E+02,6.026E+03,-2.038E+01,-8.408E+01,1.000E-01
2.80E+02,6.166E+03,-2.066E+01,-8.479E+01,1.000E-01
2.81E+02,6.310E+03,-2.085E+01,-8.435E+01,1.000E-01
2.82E+02,6.457E+03,-2.100E+01,-8.454E+01,1.000E-01
2.83E+02,6.607E+03,-2.123E+01,-8.490E+01,1.000E-01
2.84E+02,6.761E+03,-2.142E+01,-8.468E+01,1.000E-01
2.85E+02,6.918E+03,-2.161E+01,-8.495E+01,1.000E-01
2.86E+02,7.079E+03,-2.176E+01,-8.504E+01,1.000E-01
2.87E+02,7.244E+03,-2.197E+01,-8.529E+01,1.000E-01
2.88E+02,7.413E+03,-2.221E+01,-8.535E+01,1.000E-01
2.89E+02,7.586E+03,-2.240E+01,-8.553E+01,1.000E-01
2.90E+02,7.762E+03,-2.252E+01,-8.513E+01,1.000E-01
2.91E+02,7.943E+03,-2.276E+01,-8.539E+01,1.000E-01
2.92E+02,8.128E+03,-2.293E+01,-8.561E+01,1.000E-01
2.93E+02,8.318E+03,-2.320E+01,-8.585E+01,1.000E-01
2.94E+02,8.511E+03,-2.338E+01,-8.558E+01,1.000E-01
2.95E+02,8.710E+03,-2.349E+01,-8.610E+01,1.000E-01
2.96E+02,8.913E+03,-2.369E+01,-8.583E+01,1.000E-01
2.97E+02,9.120E+03,-2.387E+01,-8.619E+01,1.000E-01
2.98E+02,9.333E+03,-2.412E+01,-8.605E+01,1.000E-01
2.99E+02,9.550E+03,-2.438E+01,-8.665E+01,1.000E-01
3.00E+02,9.772E+03,-2.447E+01,-8.640E+01,1.000E-01
3.01E+02,1.000E+04,-2.471E+01,-8.645E+01,1.000E-01
3.02E+02,1.023E+04,-2.485E+01,-8.671E+01,1.000E-01
3.03E+02,1.047E+04,-2.515E+01,-8.684E+01,1.000E-01
3.04E+02,1.072E+04,-2.539E+01,-8.679E+01,1.000E-01
3.05E+02,1.096E+04,-2.555E+01,-8.695E+01,1.000E-01
3.06E+02,1.122E+04,-2.566E+01,-8.690E+01,1.000E-01
3.07E+02,1.148E+04,-2.593E+01,-8.695E+01,1.000E-01
3.08E+02,1.175E+04,-2.618E+01,-8.695E+01,1.000E-01
3.09E+02,1.202E+04,-2.634E+01,-8.720E+01,1.000E-01
3.10E+02,1.230E+04,-2.646E+01,-8.720E+01,1.000E-01
3.11E+02,1.259E+04,-2.667E+01,-8.732E+01,1.000E-01
3.12E+02,1.288E+04,-2.699E+01,-8.762E+01,1.000E-01
3.13E+02,1.318E+04,-2.706E+01,-8.746E+01,1.000E-01
3.14E+02,1.349E+04,-2.732E+01,-8.755E+01,1.000E-01
3.15E+02,1.380E+04,-2.752E+01,-8.778E+01,1.000E-01
3.16E+02,1.413E+04,-2.765E+01,-8.750E+01,1.000E-01
3.17E+02,1.445E+04,-2.788E+01,-8.741E+01,1.000E-01
3.18E+02,1.479E+04,-2.814E+01,-8.837E+01,1.000E-01
3.19E+02,1.514E+04,-2.830E+01,-8.810E+01,1.000E-01
3.20E+02,1.549E+04,-2.851E+01,-8.830E+01,1.000E-01
3.21E+02,1.585E+04,-2.882E+01,-8.827E+01,1.000E-01
3.22E+02,1.622E+04,-2.896E+01,-8.802E+01,1.000E-01
3.23E+02,1.660E+04,-2.912E+01,-8.834E+01,1.000E-01
3.24E+02,1.698E+04,-2.934E+01,-8.812E+01,1.000E-01
3.25E+02,1.738E+04,-2.947E+01,-8.835E+01,1.000E-01
3.26E+02,1.778E+04,-2.979E+01,-8.848E+01,1.000E-01
3.27E+02,1.820E+04,-2.982E+01,-8.873E+01,1.000E-01
3.28E+02,1.862E+04,-3.017E+01,-8.839E+01,1.000E-01
3.29E+02,1.905E+04,-3.033E+01,-8.874E+01,1.000E-01
3.30E+02,1.950E+04,-3.051E+01,-8.844E+01,1.000E-01
3.31E+02,1.995E+04,-3.073E+01,-8.856E+01,1.000E-01
3.32E+02,2.042E+04,-3.088E+01,-8.853E+01,1.000E-01
3.33E+02,2.089E+04,-3.118E+01,-8.874E+01,1.000E-01
3.34E+02,2.138E+04,-3.124E+01,-8.881E+01,1.000E-01
3.35E+02,2.188E+04,-3.152E+01,-8.868E+01,1.000E-01
3.36E+02,2.239E+04,-3.165E+01,-8.862E+01,1.000E-01
3.37E+02,2.291E+04,-3.191E+01,-8.871E+01,1.000E-01
3.38E+02,2.344E+04,-3.205E+01,-8.854E+01,1.000E-01
3.39E+02,2.399E+04,-3.235E+01,-8.901E+01,1.000E-01
3.40E+02,2.455E+04,-3.253E+01,-8.895E+01,1.000E-01
3.41E+02,2.512E+04,-3.229E+01,-8.915E+01,1.000E-01
3.42E+02,2.570E+04,-3.245E+01,-8.903E+01,1.000E-01
3.43E+02,2.630E+04,-3.275E+01,-8.888E+01,1.000E-01
3.44E+02,2.692E+04,-3.302E+01,-8.902E+01,1.000E-01
3.45E+02,2.754E+04,-3.331E+01,-8.917E+01,1.000E-01
3.46E+02,2.818E+04,-3.326E+01,-8.859E+01,1.000E-01
3.47E+02,2.884E+04,-3.367E+01,-8.968E+01,1.000E-01
3.48E+02,2.951E+04,-3.375E+01,-8.969E+01,1.000E-01
3.49E+02,3.020E+04,-3.383E+01,-8.956E+01,1.000E-01
3.50E+02,3.090E+04,-3.408E+01,-8.907E+01,1.000E-01
3.51E+02,3.162E+04,-3.452E+01,-8.952E+01,1.000E-01
3.52E+02,3.236E+04,-3.490E+01,-8.964E+01,1.000E-01
3.53E+02,3.311E+04,-3.495E+01,-8.894E+01,1.000E-01
3.54E+02,3.388E+04,-3.519E+01,-8.930E+01,1.000E-01
3.55E+02,3.467E+04,-3.548E+01,-9.000E+01,1.000E-01
3.56E+02,3.548E+04,-3.552E+01,-8.937E+01,1.000E-01
3.57E+02,3.631E+04,-3.559E+01,-8.909E+01,1.000E-01
3.58E+02,3.715E+04,-3.598E+01,-8.916E+01,1.000E-01
3.59E+02,3.802E+04,-3.617E+01,-9.022E+01,1.000E-01
3.60E+02,3.890E+04,-3.667E+01,-8.985E+01,1.000E-01
3.61E+02,3.981E+04,-3.689E+01,-8.960E+01,1.000E-01
3.62E+02,4.074E+04,-3.698E+01,-8.931E+01,1.000E-01
3.63E+02,4.169E+04,-3.728E+01,-8.948E+01,1.000E-01
3.64E+02,4.266E+04,-3.726E+01,-8.866E+01,1.000E-01
3.65E+02,4.365E+04,-3.744E+01,-8.930E+01,1.000E-01
3.66E+02,4.467E+04,-3.762E+01,-8.914E+01,1.000E-01
3.67E+02,4.571E+04,-3.788E+01,-8.855E+01,1.000E-01
3.68E+02,4.677E+04,-3.828E+01,-8.973E+01,1.000E-01
3.69E+02,4.786E+04,-3.848E+01,-8.887E+01,1.000E-01
3.70E+02,4.898E+04,-3.855E+01,-8.963E+01,1.000E-01
3.71E+02,5.012E+04,-3.883E+01,-8.925E+01,1.000E-01
3.72E+02,5.129E+04,-3.898E+01,-8.884E+01,1.000E-01
3.73E+02,5.248E+04,-3.916E+01,-8.876E+01,1.000E-01
3.74E+02,5.370E+04,-3.944E+01,-8.954E+01,1.000E-01
3.75E+02,5.495E+04,-3.980E+01,-8.941E+01,1.000E-01
3.76E+02,5.623E+04,-3.977E+01,-8.903E+01,1.000E-01
3.77E+02,5.754E+04,-4.002E+01,-8.929E+01,1.000E-01
3.78E+02,5.888E+04,-4.009E+01,-8.891E+01,1.000E-01
3.79E+02,6.026E+04,-4.054E+01,-8.881E+01,1.000E-01
3.80E+02,6.166E+04,-4.058E+01,-8.886E+01,1.000E-01
3.81E+02,6.310E+04,-4.122E+01,-8.931E+01,1.000E-01
3.82E+02,6.457E+04,-4.105E+01,-9.033E+01,1.000E-01
3.83E+02,6.607E+04,-4.139E+01,-8.860E+01,1.000E-01
3.84E+02,6.761E+04,-4.211E+01,-8.855E+01,1.000E-01
3.85E+02,6.918E+04,-4.179E+01,-8.996E+01,1.000E-01
3.86E+02,7.079E+04,-4.162E+01,-8.902E+01,1.000E-01
3.87E+02,7.244E+04,-4.245E+01,-8.899E+01,1.000E-01
3.88E+02,7.413E+04,-4.285E+01,-8.813E+01,1.000E-01
3.89E+02,7.586E+04,-4.263E+01,-8.883E+01,1.000E-01
3.90E+02,7.762E+04,-4.266E+01,-8.896E+01,1.000E-01
3.91E+02,7.943E+04,-4.341E+01,-8.722E+01,1.000E-01
