in Sa,Frequency in Hz,Gain in dB,Phase in °,Amplitude in Vpp
1.00E+00,1.000E+01,-2.737E-02,-4.586E-02,1.000E-01
2.00E+00,1.023E+01,-3.193E-02,-3.197E-02,1.000E-01
3.00E+00,1.047E+01,-3.508E-02,-1.549E-02,1.000E-01
4.00E+00,1.072E+01,-2.639E-02,-5.349E-02,1.000E-01
5.00E+00,1.096E+01,-2.903E-02,-5.011E-02,1.000E-01
6.00E+00,1.122E+01,-3.194E-02,-3.810E-02,1.000E-01
7.00E+00,1.148E+01,-2.323E-02,-7.324E-02,1.000E-01
8.00E+00,1.175E+01,-2.565E-02,-8.533E-02,1.000E-01
9.00E+00,1.202E+01,-3.663E-02,-1.468E-02,1.000E-01
1.00E+01,1.230E+01,-3.248E-02,-8.842E-02,1.000E-01
1.10E+01,1.259E+01,-3.008E-02,-6.025E-02,1.000E-01
1.20E+01,1.288E+01,-2.963E-02,-4.960E-02,1.000E-01
1.30E+01,1.318E+01,-3.071E-02,-3.864E-02,1.000E-01
1.40E+01,1.349E+01,-3.468E-02,-7.736E-03,1.000E-01
1.50E+01,1.380E+01,-3.380E-02,-1.234E-02,1.000E-01
1.60E+01,1.413E+01,-3.137E-02,-2.565E-02,1.000E-01
1.70E+01,1.445E+01,-3.190E-02,-2.437E-02,1.000E-01
1.80E+01,1.479E+01,-2.594E-02,-6.856E-02,1.000E-01
1.90E+01,1.514E+01,-2.989E-02,-4.566E-02,1.000E-01
2.00E+01,1.549E+01,-3.174E-02,-6.556E-02,1.000E-01
2.10E+01,1.585E+01,-2.870E-02,-7.840E-02,1.000E-01
2.20E+01,1.622E+01,-3.247E-02,-2.051E-02,1.000E-01
2.30E+01,1.660E+01,-3.331E-02,-1.286E-02,1.000E-01
2.40E+01,1.698E+01,-3.567E-02,-1.186E-02,1.000E-01
2.50E+01,1.738E+01,-3.023E-02,-2.914E-02,1.000E-01
2.60E+01,1.778E+01,-3.435E-02,-2.454E-02,1.000E-01
2.70E+01,1.820E+01,-2.900E-02,-3.746E-03,1.000E-01
2.80E+01,1.862E+01,-3.035E-02,-6.632E-02,1.000E-01
2.90E+01,1.905E+01,-3.033E-02,-4.275E-02,1.000E-01
3.00E+01,1.950E+01,-2.865E-02,-6.067E-02,1.000E-01
3.10E+01,1.995E+01,-3.067E-02,-6.192E-02,1.000E-01
3.20E+01,2.042E+01,-3.056E-02,-7.093E-02,1.000E-01
3.30E+01,2.089E+01,-3.173E-02,-1.939E-02,1.000E-01
3.40E+01,2.138E+01,-2.956E-02,2.276E-02,1.000E-01
3.50E+01,2.188E+01,-3.334E-02,-6.483E-02,1.000E-01
3.60E+01,2.239E+01,-3.173E-02,-7.944E-02,1.000E-01
3.70E+01,2.291E+01,-2.939E-02,-2.847E-02,1.000E-01
3.80E+01,2.344E+01,-2.635E-02,-4.876E-02,1.000E-01
3.90E+01,2.399E+01,-3.146E-02,-8.442E-02,1.000E-01
4.00E+01,2.455E+01,-2.918E-02,-4.028E-02,1.000E-01
4.10E+01,2.512E+01,-2.633E-02,-6.788E-02,1.000E-01
4.20E+01,2.570E+01,-2.981E-02,-3.641E-02,1.000E-01
4.30E+01,2.630E+01,-3.221E-02,-3.029E-02,1.000E-01
4.40E+01,2.692E+01,-3.179E-02,-8.600E-02,1.000E-01
4.50E+01,2.754E+01,-3.382E-02,-8.241E-02,1.000E-01
4.60E+01,2.818E+01,-2.481E-02,-7.193E-02,1.000E-01
4.70E+01,2.884E+01,-3.028E-02,-6.982E-02,1.000E-01
4.80E+01,2.951E+01,-2.945E-02,-1.680E-02,1.000E-01
4.90E+01,3.020E+01,-2.999E-02,-6.174E-02,1.000E-01
5.00E+01,3.090E+01,-3.267E-02,-5.920E-02,1.000E-01
5.10E+01,3.162E+01,-2.835E-02,-6.693E-02,1.000E-01
5.20E+01,3.236E+01,-3.120E-02,-3.886E-02,1.000E-01
5.30E+01,3.311E+01,-2.962E-02,-5.848E-02,1.000E-01
5.40E+01,3.388E+01,-3.172E-02,-5.857E-02,1.000E-01
5.50E+01,3.467E+01,-3.026E-02,-5.621E-02,1.000E-01
5.60E+01,3.548E+01,-2.910E-02,-3.811E-02,1.000E-01
5.70E+01,3.631E+01,-3.229E-02,-5.907E-02,1.000E-01
5.80E+01,3.715E+01,-3.038E-02,-7.714E-02,1.000E-01
5.90E+01,3.802E+01,-3.048E-02,-3.919E-02,1.000E-01
6.00E+01,3.890E+01,-3.154E-02,-7.493E-02,1.000E-01
6.10E+01,3.981E+01,-2.959E-02,-7.879E-02,1.000E-01
6.20E+01,4.074E+01,-2.824E-02,-7.572E-02,1.000E-01
6.30E+01,4.169E+01,-3.118E-02,-6.132E-02,1.000E-01
6.40E+01,4.266E+01,-3.014E-02,-9.863E-02,1.000E-01
6.50E+01,4.365E+01,-3.242E-02,-6.625E-02,1.000E-01
6.60E+01,4.467E+01,-2.933E-02,-8.109E-02,1.000E-01
6.70E+01,4.571E+01,-3.203E-02,-9.225E-02,1.000E-01
6.80E+01,4.677E+01,-2.557E-02,-9.979E-02,1.000E-01
6.90E+01,4.786E+01,-2.782E-02,-1.011E-01,1.000E-01
7.00E+01,4.898E+01,-3.025E-02,-7.269E-02,1.000E-01
7.10E+01,5.012E+01,-3.119E-02,-8.929E-02,1.000E-01
7.20E+01,5.129E+01,-3.086E-02,-9.408E-02,1.000E-01
7.30E+01,5.248E+01,-3.281E-02,-5.073E-02,1.000E-01
7.40E+01,5.370E+01,-2.968E-02,-5.663E-02,1.000E-01
7.50E+01,5.495E+01,-2.840E-02,-8.735E-02,1.000E-01
7.60E+01,5.623E+01,-3.718E-02,-7.581E-02,1.000E-01
7.70E+01,5.754E+01,-2.884E-02,-6.562E-02,1.000E-01
7.80E+01,5.888E+01,-2.804E-02,-8.867E-02,1.000E-01
7.90E+01,6.026E+01,-3.463E-02,-9.889E-02,1.000E-01
8.00E+01,6.166E+01,-3.197E-02,-8.245E-02,1.000E-01
8.10E+01,6.310E+01,-3.048E-02,-9.827E-02,1.000E-01
8.20E+01,6.457E+01,-3.239E-02,-8.061E-02,1.000E-01
8.30E+01,6.607E+01,-3.512E-02,-1.163E-01,1.000E-01
8.40E+01,6.761E+01,-3.155E-02,-9.073E-02,1.000E-01
8.50E+01,6.918E+01,-3.310E-02,-1.242E-01,1.000E-01
8.60E+01,7.079E+01,-3.197E-02,-9.502E-02,1.000E-01
8.70E+01,7.244E+01,-3.496E-02,-9.490E-02,1.000E-01
8.80E+01,7.413E+01,-3.442E-02,-1.120E-01,1.000E-01
8.90E+01,7.586E+01,-3.001E-02,-1.183E-01,1.000E-01
9.00E+01,7.762E+01,-2.807E-02,-1.470E-01,1.000E-01
9.10E+01,7.943E+01,-3.307E-02,-1.065E-01,1.000E-01
9.20E+01,8.128E+01,-3.385E-02,-1.227E-01,1.000E-01
9.30E+01,8.318E+01,-3.369E-02,-1.436E-01,1.000E-01
9.40E+01,8.511E+01,-3.238E-02,-1.128E-01,1.000E-01
9.50E+01,8.710E+01,-3.385E-02,-8.141E-02,1.000E-01
9.60E+01,8.913E+01,-3.380E-02,-1.272E-01,1.000E-01
9.70E+01,9.120E+01,-3.391E-02,-1.706E-01,1.000E-01
9.80E+01,9.333E+01,-3.072E-02,-1.435E-01,1.000E-01
9.90E+01,9.550E+01,-3.255E-02,-1.674E-01,1.000E-01
1.00E+02,9.772E+01,-2.958E-02,-1.504E-01,1.000E-01
1.01E+02,1.000E+02,-4.068E-02,-1.569E-01,1.000E-01
1.02E+02,1.023E+02,-3.747E-02,-1.278E-01,1.000E-01
1.03E+02,1.047E+02,-3.524E-02,-1.184E-01,1.000E-01
1.04E+02,1.072E+02,-3.332E-02,-1.720E-01,1.000E-01
1.05E+02,1.096E+02,-3.292E-02,-1.382E-01,1.000E-01
1.06E+02,1.122E+02,-3.385E-02,-1.487E-01,1.000E-01
1.07E+02,1.148E+02,-3.648E-02,-1.667E-01,1.000E-01
1.08E+02,1.175E+02,-3.600E-02,-1.944E-01,1.000E-01
1.09E+02,1.202E+02,-3.158E-02,-2.163E-01,1.000E-01
1.10E+02,1.230E+02,-3.778E-02,-1.614E-01,1.000E-01
1.11E+02,1.259E+02,-3.627E-02,-1.811E-01,1.000E-01
1.12E+02,1.288E+02,-3.848E-02,-1.946E-01,1.000E-01
1.13E+02,1.318E+02,-3.775E-02,-1.570E-01,1.000E-01
1.14E+02,1.349E+02,-3.944E-02,-1.831E-01,1.000E-01
1.15E+02,1.380E+02,-3.693E-02,-2.068E-01,1.000E-01
1.16E+02,1.413E+02,-3.884E-02,-1.562E-01,1.000E-01
1.17E+02,1.445E+02,-4.202E-02,-2.175E-01,1.000E-01
1.18E+02,1.479E+02,-3.397E-02,-1.824E-01,1.000E-01
1.19E+02,1.514E+02,-3.944E-02,-2.253E-01,1.000E-01
1.20E+02,1.549E+02,-3.988E-02,-2.222E-01,1.000E-01
1.21E+02,1.585E+02,-3.873E-02,-2.145E-01,1.000E-01
1.22E+02,1.622E+02,-3.603E-02,-2.464E-01,1.000E-01
1.23E+02,1.660E+02,-3.755E-02,-2.117E-01,1.000E-01
1.24E+02,1.698E+02,-4.035E-02,-2.001E-01,1.000E-01
1.25E+02,1.738E+02,-4.194E-02,-2.305E-01,1.000E-01
1.26E+02,1.778E+02,-4.091E-02,-2.617E-01,1.000E-01
1.27E+02,1.820E+02,-4.095E-02,-2.058E-01,1.000E-01
1.28E+02,1.862E+02,-4.024E-02,-2.655E-01,1.000E-01
1.29E+02,1.905E+02,-4.383E-02,-2.120E-01,1.000E-01
1.30E+02,1.950E+02,-4.604E-02,-2.575E-01,1.000E-01
1.31E+02,1.995E+02,-4.605E-02,-2.792E-01,1.000E-01
1.32E+02,2.042E+02,-4.865E-02,-2.470E-01,1.000E-01
1.33E+02,2.089E+02,-4.785E-02,-3.131E-01,1.000E-01
1.34E+02,2.138E+02,-4.737E-02,-2.684E-01,1.000E-01
1.35E+02,2.188E+02,-4.504E-02,-2.919E-01,1.000E-01
1.36E+02,2.239E+02,-3.991E-02,-3.009E-01,1.000E-01
1.37E+02,2.291E+02,-5.641E-02,-2.865E-01,1.000E-01
1.38E+02,2.344E+02,-4.446E-02,-2.944E-01,1.000E-01
1.39E+02,2.399E+02,-3.810E-02,-3.208E-01,1.000E-01
1.40E+02,2.455E+02,-4.925E-02,-2.523E-01,1.000E-01
1.41E+02,2.512E+02,-5.516E-02,-3.244E-01,1.000E-01
1.42E+02,2.570E+02,-5.381E-02,-3.211E-01,1.000E-01
1.43E+02,2.630E+02,-5.188E-02,-2.513E-01,1.000E-01
1.44E+02,2.692E+02,-3.754E-02,-3.133E-01,1.000E-01
1.45E+02,2.754E+02,-4.777E-02,-3.500E-01,1.000E-01
1.46E+02,2.818E+02,-5.613E-02,-3.710E-01,1.000E-01
1.47E+02,2.884E+02,-5.480E-02,-3.468E-01,1.000E-01
1.48E+02,2.951E+02,-5.762E-02,-3.431E-01,1.000E-01
1.49E+02,3.020E+02,-6.174E-02,-3.810E-01,1.000E-01
1.50E+02,3.090E+02,-4.951E-02,-3.397E-01,1.000E-01
1.51E+02,3.162E+02,-5.727E-02,-3.388E-01,1.000E-01
1.52E+02,3.236E+02,-5.642E-02,-3.908E-01,1.000E-01
1.53E+02,3.311E+02,-5.680E-02,-3.443E-01,1.000E-01
1.54E+02,3.388E+02,-6.264E-02,-3.039E-01,1.000E-01
1.55E+02,3.467E+02,-6.497E-02,-4.254E-01,1.000E-01
1.56E+02,3.548E+02,-5.514E-02,-3.920E-01,1.000E-01
1.57E+02,3.631E+02,-6.428E-02,-4.511E-01,1.000E-01
1.58E+02,3.715E+02,-6.325E-02,-3.530E-01,1.000E-01
1.59E+02,3.802E+02,-6.615E-02,-3.447E-01,1.000E-01
1.60E+02,3.890E+02,-6.671E-02,-4.429E-01,1.000E-01
1.61E+02,3.981E+02,-7.457E-02,-3.740E-01,1.000E-01
1.62E+02,4.074E+02,-7.014E-02,-4.239E-01,1.000E-01
1.63E+02,4.169E+02,-7.801E-02,-4.633E-01,1.000E-01
1.64E+02,4.266E+02,-6.907E-02,-4.356E-01,1.000E-01
1.65E+02,4.365E+02,-7.393E-02,-3.881E-01,1.000E-01
1.66E+02,4.467E+02,-8.310E-02,-4.233E-01,1.000E-01
1.67E+02,4.571E+02,-6.626E-02,-4.013E-01,1.000E-01
1.68E+02,4.677E+02,-8.249E-02,-3.351E-01,1.000E-01
1.69E+02,4.786E+02,-7.863E-02,-4.058E-01,1.000E-01
1.70E+02,4.898E+02,-8.541E-02,-3.405E-01,1.000E-01
1.71E+02,5.012E+02,-8.101E-02,-4.262E-01,1.000E-01
1.72E+02,5.129E+02,-8.470E-02,-3.871E-01,1.000E-01
1.73E+02,5.248E+02,-1.000E-01,-4.058E-01,1.000E-01
1.74E+02,5.370E+02,-9.123E-02,-3.160E-01,1.000E-01
1.75E+02,5.495E+02,-8.596E-02,-3.930E-01,1.000E-01
1.76E+02,5.623E+02,-1.018E-01,-4.326E-01,1.000E-01
1.77E+02,5.754E+02,-9.185E-02,-4.451E-01,1.000E-01
1.78E+02,5.888E+02,-9.690E-02,-4.138E-01,1.000E-01
1.79E+02,6.026E+02,-9.866E-02,-3.518E-01,1.000E-01
1.80E+02,6.166E+02,-1.060E-01,-3.735E-01,1.000E-01
1.81E+02,6.310E+02,-1.014E-01,-3.998E-01,1.000E-01
1.82E+02,6.457E+02,-1.166E-01,-4.207E-01,1.000E-01
1.83E+02,6.607E+02,-1.150E-01,-4.079E-01,1.000E-01
1.84E+02,6.761E+02,-1.158E-01,-4.188E-01,1.000E-01
1.85E+02,6.918E+02,-9.724E-02,-3.914E-01,1.000E-01
1.86E+02,7.079E+02,-1.086E-01,-3.774E-01,1.000E-01
1.87E+02,7.244E+02,-1.156E-01,-3.880E-01,1.000E-01
1.88E+02,7.413E+02,-1.098E-01,-3.720E-01,1.000E-01
1.89E+02,7.586E+02,-1.161E-01,-3.467E-01,1.000E-01
1.90E+02,7.762E+02,-1.076E-01,-3.650E-01,1.000E-01
1.91E+02,7.943E+02,-1.202E-01,-3.539E-01,1.000E-01
1.92E+02,8.128E+02,-1.089E-01,-4.128E-01,1.000E-01
1.93E+02,8.318E+02,-1.195E-01,-4.617E-01,1.000E-01
1.94E+02,8.511E+02,-1.112E-01,-4.010E-01,1.000E-01
1.95E+02,8.710E+02,-1.170E-01,-2.953E-01,1.000E-01
1.96E+02,8.913E+02,-1.085E-01,-4.385E-01,1.000E-01
1.97E+02,9.120E+02,-1.143E-01,-3.644E-01,1.000E-01
1.98E+02,9.333E+02,-1.112E-01,-3.713E-01,1.000E-01
1.99E+02,9.550E+02,-1.246E-01,-3.723E-01,1.000E-01
2.00E+02,9.772E+02,-1.254E-01,-3.956E-01,1.000E-01
2.01E+02,1.000E+03,-1.213E-01,-3.754E-01,1.000E-01
2.02E+02,1.023E+03,-1.288E-01,-3.612E-01,1.000E-01
2.03E+02,1.047E+03,-1.250E-01,-3.729E-01,1.000E-01
2.04E+02,1.072E+03,-1.266E-01,-3.249E-01,1.000E-01
2.05E+02,1.096E+03,-1.370E-01,-3.465E-01,1.000E-01
2.06E+02,1.122E+03,-1.368E-01,-3.388E-01,1.000E-01
2.07E+02,1.148E+03,-1.257E-01,-3.888E-01,1.000E-01
2.08E+02,1.175E+03,-1.274E-01,-3.636E-01,1.000E-01
2.09E+02,1.202E+03,-1.321E-01,-3.327E-01,1.000E-01
2.10E+02,1.230E+03,-1.306E-01,-3.092E-01,1.000E-01
2.11E+02,1.259E+03,-1.353E-01,-3.183E-01,1.000E-01
2.12E+02,1.288E+03,-1.330E-01,-3.336E-01,1.000E-01
2.13E+02,1.318E+03,-1.365E-01,-3.194E-01,1.000E-01
2.14E+02,1.349E+03,-1.380E-01,-3.768E-01,1.000E-01
2.15E+02,1.380E+03,-1.361E-01,-3.244E-01,1.000E-01
2.16E+02,1.413E+03,-1.425E-01,-3.419E-01,1.000E-01
2.17E+02,1.445E+03,-1.436E-01,-3.509E-01,1.000E-01
2.18E+02,1.479E+03,-1.385E-01,-3.228E-01,1.000E-01
2.19E+02,1.514E+03,-1.452E-01,-3.118E-01,1.000E-01
2.20E+02,1.549E+03,-1.371E-01,-3.045E-01,1.000E-01
2.21E+02,1.585E+03,-1.408E-01,-3.332E-01,1.000E-01
2.22E+02,1.622E+03,-1.331E-01,-3.136E-01,1.000E-01
2.23E+02,1.660E+03,-1.425E-01,-3.005E-01,1.000E-01
2.24E+02,1.698E+03,-1.399E-01,-3.187E-01,1.000E-01
2.25E+02,1.738E+03,-1.386E-01,-2.809E-01,1.000E-01
2.26E+02,1.778E+03,-1.393E-01,-2.735E-01,1.000E-01
2.27E+02,1.820E+03,-1.454E-01,-2.939E-01,1.000E-01
2.28E+02,1.862E+03,-1.460E-01,-2.842E-01,1.000E-01
2.29E+02,1.905E+03,-1.459E-01,-2.441E-01,1.000E-01
2.30E+02,1.950E+03,-1.485E-01,-2.689E-01,1.000E-01
2.31E+02,1.995E+03,-1.481E-01,-2.370E-01,1.000E-01
2.32E+02,2.042E+03,-1.505E-01,-2.220E-01,1.000E-01
2.33E+02,2.089E+03,-1.499E-01,-2.569E-01,1.000E-01
2.34E+02,2.138E+03,-1.495E-01,-2.353E-01,1.000E-01
2.35E+02,2.188E+03,-1.494E-01,-2.225E-01,1.000E-01
2.36E+02,2.239E+03,-1.500E-01,-2.174E-01,1.000E-01
2.37E+02,2.291E+03,-1.478E-01,-2.404E-01,1.000E-01
2.38E+02,2.344E+03,-1.454E-01,-2.511E-01,1.000E-01
2.39E+02,2.399E+03,-1.507E-01,-2.183E-01,1.000E-01
2.40E+02,2.455E+03,-1.473E-01,-2.376E-01,1.000E-01
2.41E+02,2.512E+03,-1.477E-01,-2.092E-01,1.000E-01
2.42E+02,2.570E+03,-1.547E-01,-2.137E-01,1.000E-01
2.43E+02,2.630E+03,-1.555E-01,-2.169E-01,1.000E-01
2.44E+02,2.692E+03,-1.513E-01,-2.220E-01,1.000E-01
2.45E+02,2.754E+03,-1.527E-01,-2.474E-01,1.000E-01
2.46E+02,2.818E+03,-1.490E-01,-1.858E-01,1.000E-01
2.47E+02,2.884E+03,-1.514E-01,-2.114E-01,1.000E-01
2.48E+02,2.951E+03,-1.508E-01,-2.037E-01,1.000E-01
2.49E+02,3.020E+03,-1.526E-01,-1.966E-01,1.000E-01
2.50E+02,3.090E+03,-1.529E-01,-1.548E-01,1.000E-01
2.51E+02,3.162E+03,-1.531E-01,-1.811E-01,1.000E-01
2.52E+02,3.236E+03,-1.463E-01,-1.544E-01,1.000E-01
2.53E+02,3.311E+03,-1.520E-01,-2.142E-01,1.000E-01
2.54E+02,3.388E+03,-1.497E-01,-1.723E-01,1.000E-01
2.55E+02,3.467E+03,-1.545E-01,-1.791E-01,1.000E-01
2.56E+02,3.548E+03,-1.532E-01,-1.640E-01,1.000E-01
2.57E+02,3.631E+03,-1.524E-01,-1.811E-01,1.000E-01
2.58E+02,3.715E+03,-1.537E-01,-1.730E-01,1.000E-01
2.59E+02,3.802E+03,-1.536E-01,-1.496E-01,1.000E-01
2.60E+02,3.890E+03,-1.513E-01,-1.935E-01,1.000E-01
2.61E+02,3.981E+03,-1.517E-01,-1.755E-01,1.000E-01
2.62E+02,4.074E+03,-1.532E-01,-1.666E-01,1.000E-01
2.63E+02,4.169E+03,-1.521E-01,-1.819E-01,1.000E-01
2.64E+02,4.266E+03,-1.516E-01,-1.538E-01,1.000E-01
2.65E+02,4.365E+03,-1.531E-01,-1.711E-01,1.000E-01
2.66E+02,4.467E+03,-1.518E-01,-1.915E-01,1.000E-01
2.67E+02,4.571E+03,-1.521E-01,-1.703E-01,1.000E-01
2.68E+02,4.677E+03,-1.540E-01,-1.581E-01,1.000E-01
2.69E+02,4.786E+03,-1.554E-01,-1.720E-01,1.000E-01
2.70E+02,4.898E+03,-1.526E-01,-1.414E-01,1.000E-01
2.71E+02,5.012E+03,-1.553E-01,-1.543E-01,1.000E-01
2.72E+02,5.129E+03,-1.538E-01,-1.797E-01,1.000E-01
2.73E+02,5.248E+03,-1.505E-01,-1.823E-01,1.000E-01
2.74E+02,5.370E+03,-1.506E-01,-1.628E-01,1.000E-01
2.75E+02,5.495E+03,-1.539E-01,-1.900E-01,1.000E-01
2.76E+02,5.623E+03,-1.520E-01,-1.436E-01,1.000E-01
2.77E+02,5.754E+03,-1.549E-01,-1.532E-01,1.000E-01
2.78E+02,5.888E+03,-1.574E-01,-1.349E-01,1.000E-01
2.79E+02,6.026E+03,-1.535E-01,-1.499E-01,1.000E-01
2.80E+02,6.166E+03,-1.491E-01,-1.585E-01,1.000E-01
2.81E+02,6.310E+03,-1.530E-01,-1.693E-01,1.000E-01
2.82E+02,6.457E+03,-1.568E-01,-1.778E-01,1.000E-01
2.83E+02,6.607E+03,-1.526E-01,-1.774E-01,1.000E-01
2.84E+02,6.761E+03,-1.498E-01,-1.726E-01,1.000E-01
2.85E+02,6.918E+03,-1.540E-01,-1.924E-01,1.000E-01
2.86E+02,7.079E+03,-1.563E-01,-1.612E-01,1.000E-01
2.87E+02,7.244E+03,-1.530E-01,-1.940E-01,1.000E-01
2.88E+02,7.413E+03,-1.561E-01,-1.761E-01,1.000E-01
2.89E+02,7.586E+03,-1.531E-01,-1.939E-01,1.000E-01
2.90E+02,7.762E+03,-1.526E-01,-1.892E-01,1.000E-01
2.91E+02,7.943E+03,-1.546E-01,-1.678E-01,1.000E-01
2.92E+02,8.128E+03,-1.532E-01,-1.887E-01,1.000E-01
2.93E+02,8.318E+03,-1.525E-01,-1.628E-01,1.000E-01
2.94E+02,8.511E+03,-1.552E-01,-1.983E-01,1.000E-01
2.95E+02,8.710E+03,-1.545E-01,-1.850E-01,1.000E-01
2.96E+02,8.913E+03,-1.542E-01,-1.813E-01,1.000E-01
2.97E+02,9.120E+03,-1.546E-01,-1.944E-01,1.000E-01
2.98E+02,9.333E+03,-1.550E-01,-1.834E-01,1.000E-01
2.99E+02,9.550E+03,-1.530E-01,-2.029E-01,1.000E-01
3.00E+02,9.772E+03,-1.537E-01,-1.915E-01,1.000E-01
3.01E+02,1.000E+04,-1.554E-01,-2.211E-01,1.000E-01
3.02E+02,1.023E+04,-1.533E-01,-2.044E-01,1.000E-01
3.03E+02,1.047E+04,-1.563E-01,-2.043E-01,1.000E-01
3.04E+02,1.072E+04,-1.558E-01,-2.154E-01,1.000E-01
3.05E+02,1.096E+04,-1.552E-01,-2.160E-01,1.000E-01
3.06E+02,1.122E+04,-1.580E-01,-2.261E-01,1.000E-01
3.07E+02,1.148E+04,-1.600E-01,-2.097E-01,1.000E-01
3.08E+02,1.175E+04,-1.617E-01,-2.341E-01,1.000E-01
3.09E+02,1.202E+04,-1.584E-01,-2.381E-01,1.000E-01
3.10E+02,1.230E+04,-1.601E-01,-2.277E-01,1.000E-01
3.11E+02,1.259E+04,-1.629E-01,-2.361E-01,1.000E-01
3.12E+02,1.288E+04,-1.621E-01,-2.518E-01,1.000E-01
3.13E+02,1.318E+04,-1.637E-01,-2.385E-01,1.000E-01
3.14E+02,1.349E+04,-1.621E-01,-2.696E-01,1.000E-01
3.15E+02,1.380E+04,-1.590E-01,-2.432E-01,1.000E-01
3.16E+02,1.413E+04,-1.611E-01,-2.533E-01,1.000E-01
3.17E+02,1.445E+04,-1.605E-01,-2.468E-01,1.000E-01
3.18E+02,1.479E+04,-1.627E-01,-2.723E-01,1.000E-01
3.19E+02,1.514E+04,-1.625E-01,-2.602E-01,1.000E-01
3.20E+02,1.549E+04,-1.644E-01,-2.643E-01,1.000E-01
3.21E+02,1.585E+04,-1.626E-01,-2.841E-01,1.000E-01
3.22E+02,1.622E+04,-1.629E-01,-2.632E-01,1.000E-01
3.23E+02,1.660E+04,-1.632E-01,-2.764E-01,1.000E-01
3.24E+02,1.698E+04,-1.645E-01,-2.975E-01,1.000E-01
3.25E+02,1.738E+04,-1.650E-01,-2.915E-01,1.000E-01
3.26E+02,1.778E+04,-1.658E-01,-2.926E-01,1.000E-01
3.27E+02,1.820E+04,-1.646E-01,-2.926E-01,1.000E-01
3.28E+02,1.862E+04,-1.641E-01,-3.098E-01,1.000E-01
3.29E+02,1.905E+04,-1.664E-01,-3.041E-01,1.000E-01
3.30E+02,1.950E+04,-1.641E-01,-3.142E-01,1.000E-01
3.31E+02,1.995E+04,-1.660E-01,-3.304E-01,1.000E-01
3.32E+02,2.042E+04,-1.666E-01,-3.221E-01,1.000E-01
3.33E+02,2.089E+04,-1.697E-01,-3.342E-01,1.000E-01
3.34E+02,2.138E+04,-1.675E-01,-3.318E-01,1.000E-01
3.35E+02,2.188E+04,-1.667E-01,-3.440E-01,1.000E-01
3.36E+02,2.239E+04,-1.670E-01,-3.490E-01,1.000E-01
3.37E+02,2.291E+04,-1.669E-01,-3.559E-01,1.000E-01
3.38E+02,2.344E+04,-1.680E-01,-3.594E-01,1.000E-01
3.39E+02,2.399E+04,-1.678E-01,-3.735E-01,1.000E-01
3.40E+02,2.455E+04,-1.694E-01,-3.725E-01,1.000E-01
3.41E+02,2.512E+04,-1.641E-01,-3.622E-01,1.000E-01
3.42E+02,2.570E+04,-1.634E-01,-3.752E-01,1.000E-01
3.43E+02,2.630E+04,-1.646E-01,-3.739E-01,1.000E-01
3.44E+02,2.692E+04,-1.632E-01,-4.008E-01,1.000E-01
3.45E+02,2.754E+04,-1.646E-01,-3.960E-01,1.000E-01
3.46E+02,2.818E+04,-1.657E-01,-3.987E-01,1.000E-01
3.47E+02,2.884E+04,-1.666E-01,-4.149E-01,1.000E-01
3.48E+02,2.951E+04,-1.672E-01,-4.395E-01,1.000E-01
3.49E+02,3.020E+04,-1.699E-01,-4.439E-01,1.000E-01
3.50E+02,3.090E+04,-1.663E-01,-4.421E-01,1.000E-01
3.51E+02,3.162E+04,-1.692E-01,-4.537E-01,1.000E-01
3.52E+02,3.236E+04,-1.671E-01,-4.575E-01,1.000E-01
3.53E+02,3.311E+04,-1.689E-01,-4.618E-01,1.000E-01
3.54E+02,3.388E+04,-1.712E-01,-4.672E-01,1.000E-01
3.55E+02,3.467E+04,-1.694E-01,-4.869E-01,1.000E-01
3.56E+02,3.548E+04,-1.699E-01,-4.877E-01,1.000E-01
3.57E+02,3.631E+04,-1.693E-01,-4.778E-01,1.000E-01
3.58E+02,3.715E+04,-1.723E-01,-5.067E-01,1.000E-01
3.59E+02,3.802E+04,-1.709E-01,-4.984E-01,1.000E-01
3.60E+02,3.890E+04,-1.707E-01,-5.422E-01,1.000E-01
3.61E+02,3.981E+04,-1.713E-01,-5.359E-01,1.000E-01
3.62E+02,4.074E+04,-1.724E-01,-5.550E-01,1.000E-01
3.63E+02,4.169E+04,-1.728E-01,-5.501E-01,1.000E-01
3.64E+02,4.266E+04,-1.697E-01,-5.600E-01,1.000E-01
3.65E+02,4.365E+04,-1.743E-01,-5.742E-01,1.000E-01
3.66E+02,4.467E+04,-1.735E-01,-5.962E-01,1.000E-01
3.67E+02,4.571E+04,-1.737E-01,-5.921E-01,1.000E-01
3.68E+02,4.677E+04,-1.745E-01,-5.959E-01,1.000E-01
3.69E+02,4.786E+04,-1.727E-01,-6.026E-01,1.000E-01
3.70E+02,4.898E+04,-1.745E-01,-6.352E-01,1.000E-01
3.71E+02,5.012E+04,-1.748E-01,-6.445E-01,1.000E-01
3.72E+02,5.129E+04,-1.746E-01,-6.449E-01,1.000E-01
3.73E+02,5.248E+04,-1.736E-01,-6.680E-01,1.000E-01
3.74E+02,5.370E+04,-1.717E-01,-6.604E-01,1.000E-01
3.75E+02,5.495E+04,-1.759E-01,-6.929E-01,1.000E-01
3.76E+02,5.623E+04,-1.739E-01,-7.058E-01,1.000E-01
3.77E+02,5.754E+04,-1.781E-01,-7.090E-01,1.000E-01
3.78E+02,5.888E+04,-1.752E-01,-7.210E-01,1.000E-01
3.79E+02,6.026E+04,-1.767E-01,-7.379E-01,1.000E-01
3.80E+02,6.166E+04,-1.784E-01,-7.575E-01,1.000E-01
3.81E+02,6.310E+04,-1.836E-01,-7.693E-01,1.000E-01
3.82E+02,6.457E+04,-1.862E-01,-7.765E-01,1.000E-01
3.83E+02,6.607E+04,-1.845E-01,-8.004E-01,1.000E-01
3.84E+02,6.761E+04,-1.859E-01,-8.321E-01,1.000E-01
3.85E+02,6.918E+04,-1.871E-01,-8.317E-01,1.000E-01
3.86E+02,7.079E+04,-1.872E-01,-8.436E-01,1.000E-01
3.87E+02,7.244E+04,-1.890E-01,-8.524E-01,1.000E-01
3.88E+02,7.413E+04,-1.857E-01,-8.718E-01,1.000E-01
3.89E+02,7.586E+04,-1.907E-01,-8.975E-01,1.000E-01
3.90E+02,7.762E+04,-1.855E-01,-8.948E-01,1.000E-01
