in Sa,Frequency in Hz,Gain in dB,Phase in °,Amplitude in Vpp
1.00E+00,1.000E+01,-8.973E+01,1.039E+01,2.500E+00
2.00E+00,1.023E+01,-9.026E+01,-5.249E-03,2.500E+00
3.00E+00,1.047E+01,-9.222E+01,9.434E+00,2.500E+00
4.00E+00,1.072E+01,-9.143E+01,6.673E+00,2.500E+00
5.00E+00,1.096E+01,-8.926E+01,-3.870E+00,2.500E+00
6.00E+00,1.122E+01,-8.996E+01,1.001E+01,2.500E+00
7.00E+00,1.148E+01,-9.213E+01,2.822E+01,2.500E+00
8.00E+00,1.175E+01,-8.883E+01,1.851E+01,2.500E+00
9.00E+00,1.202E+01,-8.859E+01,-1.717E+00,2.500E+00
1.00E+01,1.230E+01,-9.072E+01,9.272E+00,2.500E+00
1.10E+01,1.259E+01,-8.693E+01,2.113E+01,2.500E+00
1.20E+01,1.288E+01,-8.897E+01,6.554E+00,2.500E+00
1.30E+01,1.318E+01,-9.012E+0121,7.417E+00,2.500E+00
1.40E+01,1.349E+01,-8.854E+01,1.332E+01,2.500E+00
1.50E+01,1.380E+01,-8.764E+01,1.282E+01,2.500E+00
1.60E+01,1.413E+01,-9.022E+01,-1.066E+01,2.500E+00
1.70E+01,1.445E+01,-8.926E+01,-5.188E+00,2.500E+00
1.80E+01,1.479E+01,-8.859E+01,5.667E+00,2.500E+00
1.90E+01,1.514E+01,-8.814E+01,6.089E+00,2.500E+00
2.00E+01,1.549E+01,-8.903E+01,4.670E+00,2.500E+00
2.10E+01,1.585E+01,-9.102E+01,-3.591E+01,2.500E+00
2.20E+01,1.622E+01,-9.272E+01,1.640E+01,2.500E+00
2.30E+01,1.660E+01,-9.017E+01,-2.834E+00,2.500E+00
2.40E+01,1.698E+01,-8.958E+01,8.587E+00,2.500E+00
2.50E+01,1.738E+01,-8.815E+01,1.440E+01,2.500E+00
2.60E+01,1.778E+01,-9.172E+01,-4.257E+00,2.500E+00
2.70E+01,1.820E+01,-8.894E+01,2.031E+01,2.500E+00
2.80E+01,1.862E+01,-8.909E+01,-8.198E+00,2.500E+00
2.90E+01,1.905E+01,-8.824E+01,-3.580E+00,2.500E+00
3.00E+01,1.950E+01,-8.747E+01,9.190E+00,2.500E+00
3.10E+01,1.995E+01,-8.959E+01,3.817E-02,2.500E+00
3.20E+01,2.042E+01,-8.972E+01,6.573E-01,2.500E+00
3.30E+01,2.089E+01,-9.164E+01,-8.816E+00,2.500E+00
3.40E+01,2.138E+01,-8.976E+01,-1.189E+01,2.500E+00
3.50E+01,2.188E+01,-9.117E+01,-1.302E+01,2.500E+00
3.60E+01,2.239E+01,-8.931E+01,9.919E+00,2.500E+00
3.70E+01,2.291E+01,-8.802E+01,-2.051E+01,2.500E+00
3.80E+01,2.344E+01,-9.440E+01,1.057E+01,2.500E+00
3.90E+01,2.399E+01,-8.738E+01,1.527E+01,2.500E+00
4.00E+01,2.455E+01,-9.003E+01,9.350E+00,2.500E+00
4.10E+01,2.512E+01,-9.133E+01,1.372E+01,2.500E+00
4.20E+01,2.570E+01,-8.964E+01,-6.231E+00,2.500E+00
4.30E+01,2.630E+01,-8.822E+01,1.314E+01,2.500E+00
4.40E+01,2.692E+01,-8.768E+01,-6.285E+00,2.500E+00
4.50E+01,2.754E+01,-8.716E+01,1.425E-01,2.500E+00
4.60E+01,2.818E+01,-8.993E+01,-1.835E+00,2.500E+00
4.70E+01,2.884E+01,-9.065E+01,1.216E+01,2.500E+00
4.80E+01,2.951E+01,-8.605E+01,3.985E+00,2.500E+00
4.90E+01,3.020E+01,-8.781E+01,5.079E+00,2.500E+00
5.00E+01,3.090E+01,-8.925E+01,2.400E+00,2.500E+00
5.10E+01,3.162E+01,-9.026E+01,7.890E+00,2.500E+00
5.20E+01,3.236E+01,-8.766E+01,2.878E+00,2.500E+00
5.30E+01,3.311E+01,-9.025E+01,1.526E+01,2.500E+00
5.40E+01,3.388E+01,-8.934E+01,-1.073E+01,2.500E+00
5.50E+01,3.467E+01,-9.045E+01,-1.006E+00,2.500E+00
5.60E+01,3.548E+01,-8.647E+01,4.558E+00,2.500E+00
5.70E+01,3.631E+01,-9.018E+01,1.542E+01,2.500E+00
5.80E+01,3.715E+01,-8.884E+01,1.929E+01,2.500E+00
5.90E+01,3.802E+01,-9.144E+01,-1.096E+01,2.500E+00
6.00E+01,3.890E+01,-9.183E+01,-1.279E+01,2.500E+00
6.10E+01,3.981E+01,-8.780E+01,-5.419E-01,2.500E+00
6.20E+01,4.074E+01,-8.809E+01,2.559E+00,2.500E+00
6.30E+01,4.169E+01,-8.651E+01,1.345E+01,2.500E+00
6.40E+01,4.266E+01,-8.985E+01,1.793E+01,2.500E+00
6.50E+01,4.365E+01,-8.682E+01,-1.946E-01,2.500E+00
6.60E+01,4.467E+01,-8.886E+01,3.865E+00,2.500E+00
6.70E+01,4.571E+01,-8.977E+01,1.343E+01,2.500E+00
6.80E+01,4.677E+01,-9.039E+01,-2.863E+00,2.500E+00
6.90E+01,4.786E+01,-9.242E+01,1.351E+01,2.500E+00
7.00E+01,4.898E+01,-8.938E+01,-3.107E+01,2.500E+00
7.10E+01,5.012E+01,-8.862E+01,2.091E+01,2.500E+00
7.20E+01,5.129E+01,-9.933E+01,6.499E+00,2.500E+00
7.30E+01,5.248E+01,-8.928E+01,-1.375E+01,2.500E+00
7.40E+01,5.370E+01,-9.089E+01,4.323E+00,2.500E+00
7.50E+01,5.495E+01,-8.588E+01,-4.526E-01,2.500E+00
7.60E+01,5.623E+01,-8.641E+01,-3.948E+00,2.500E+00
7.70E+01,5.754E+01,-9.100E+01,-1.079E+01,2.500E+00
7.80E+01,5.888E+01,-9.237E+01,-6.749E+00,2.500E+00
7.90E+01,6.026E+01,-9.049E+01,1.574E+00,2.500E+00
8.00E+01,6.166E+01,-8.969E+01,2.691E+00,2.500E+00
8.10E+01,6.310E+01,-9.073E+01,5.124E+00,2.500E+00
8.20E+01,6.457E+01,-8.956E+01,1.549E+01,2.500E+00
8.30E+01,6.607E+01,-9.157E+01,-6.102E+00,2.500E+00
8.40E+01,6.761E+01,-9.130E+01,-6.327E+00,2.500E+00
8.50E+01,6.918E+01,-9.056E+01,-5.791E+00,2.500E+00
8.60E+01,7.079E+01,-8.903E+01,-5.060E+00,2.500E+00
8.70E+01,7.244E+01,-8.590E+01,-4.966E+00,2.500E+00
8.80E+01,7.413E+01,-8.821E+01,1.601E+01,2.500E+00
8.90E+01,7.586E+01,-8.734E+01,1.971E+01,2.500E+00
9.00E+01,7.762E+01,-9.162E+01,-1.145E+01,2.500E+00
9.10E+01,7.943E+01,-9.011E+01,4.842E+00,2.500E+00
9.20E+01,8.128E+01,-8.850E+01,4.879E-01,2.500E+00
9.30E+01,8.318E+01,-9.143E+01,-3.314E+00,2.500E+00
9.40E+01,8.511E+01,-8.848E+01,2.096E+01,2.500E+00
9.50E+01,8.710E+01,-8.979E+01,-1.493E+01,2.500E+00
9.60E+01,8.913E+01,-9.090E+01,3.664E+00,2.500E+00
9.70E+01,9.120E+01,-8.925E+01,-2.585E+01,2.500E+00
9.80E+01,9.333E+01,-9.049E+01,9.936E-01,2.500E+00
9.90E+01,9.550E+01,-9.073E+01,-1.575E+01,2.500E+00
1.00E+02,9.772E+01,-9.175E+01,1.183E+00,2.500E+00
1.01E+02,1.000E+02,-8.966E+01,-7.794E+00,2.500E+00
1.02E+02,1.023E+02,-9.005E+01,3.230E+00,2.500E+00
1.03E+02,1.047E+02,-8.742E+01,-1.153E+00,2.500E+00
1.04E+02,1.072E+02,-8.778E+01,1.756E-01,2.500E+00
1.05E+02,1.096E+02,-9.200E+01,1.423E+01,2.500E+00
1.06E+02,1.122E+02,-8.951E+01,3.705E-01,2.500E+00
1.07E+02,1.148E+02,-8.662E+01,-8.102E+00,2.500E+00
1.08E+02,1.175E+02,-9.064E+01,-1.420E+01,2.500E+00
1.09E+02,1.202E+02,-8.945E+01,1.130E+01,2.500E+00
1.10E+02,1.230E+02,-9.036E+01,4.777E-01,2.500E+00
1.11E+02,1.259E+02,-8.988E+01,1.097E+01,2.500E+00
1.12E+02,1.288E+02,-8.749E+01,7.762E+00,2.500E+00
1.13E+02,1.318E+02,-9.195E+01,-1.341E+00,2.500E+00
1.14E+02,1.349E+02,-9.334E+01,9.052E+00,2.500E+00
1.15E+02,1.380E+02,-9.404E+01,1.638E+01,2.500E+00
1.16E+02,1.413E+02,-8.939E+01,6.733E+00,2.500E+00
1.17E+02,1.445E+02,-8.763E+01,2.261E+01,2.500E+00
1.18E+02,1.479E+02,-8.947E+01,3.645E+01,2.500E+00
1.19E+02,1.514E+02,-9.174E+01,7.709E+00,2.500E+00
1.20E+02,1.549E+02,-8.987E+01,5.444E-01,2.500E+00
1.21E+02,1.585E+02,-9.249E+01,3.495E+01,2.500E+00
1.22E+02,1.622E+02,-9.144E+01,6.391E+00,2.500E+00
1.23E+02,1.660E+02,-8.922E+01,-4.792E+00,2.500E+00
1.24E+02,1.698E+02,-8.969E+01,-2.691E+01,2.500E+00
1.25E+02,1.738E+02,-8.684E+01,-9.049E+00,2.500E+00
1.26E+02,1.778E+02,-8.848E+01,-3.548E+00,2.500E+00
1.27E+02,1.820E+02,-9.339E+01,-2.239E+01,2.500E+00
1.28E+02,1.862E+02,-9.341E+01,2.149E+01,2.500E+00
1.29E+02,1.905E+02,-9.262E+01,5.085E+01,2.500E+00
1.30E+02,1.950E+02,-9.227E+01,8.116E+01,2.500E+00
1.31E+02,1.995E+02,-8.794E+01,4.324E+01,2.500E+00
1.32E+02,2.042E+02,-8.953E+01,-1.676E+01,2.500E+00
1.33E+02,2.089E+02,-9.098E+01,1.386E+01,2.500E+00
1.34E+02,2.138E+02,-9.014E+01,2.589E+01,2.500E+00
1.35E+02,2.188E+02,-9.188E+01,2.060E+01,2.500E+00
1.36E+02,2.239E+02,-8.856E+01,2.413E+01,2.500E+00
1.37E+02,2.291E+02,-8.946E+01,4.535E+01,2.500E+00
1.38E+02,2.344E+02,-9.531E+01,2.600E+01,2.500E+00
1.39E+02,2.399E+02,-8.831E+01,1.906E+01,2.500E+00
1.40E+02,2.455E+02,-8.809E+01,5.882E-01,2.500E+00
1.41E+02,2.512E+02,-8.655E+01,2.221E+01,2.500E+00
1.42E+02,2.570E+02,-9.208E+01,2.077E+01,2.500E+00
1.43E+02,2.630E+02,-8.955E+01,9.269E+00,2.500E+00
1.44E+02,2.692E+02,-9.225E+01,-1.012E+00,2.500E+00
1.45E+02,2.754E+02,-8.850E+01,3.251E+01,2.500E+00
1.46E+02,2.818E+02,-9.134E+01,-3.568E+01,2.500E+00
1.47E+02,2.884E+02,-1.133E+02,8.428E+01,2.500E+00
1.48E+02,2.951E+02,-8.699E+01,4.276E+01,2.500E+00
1.49E+02,3.020E+02,-1.007E+02,1.063E+02,2.500E+00
1.50E+02,3.090E+02,-8.751E+01,7.238E+01,2.500E+00
1.51E+02,3.162E+02,-8.553E+01,4.581E+01,2.500E+00
1.52E+02,3.236E+02,-8.731E+01,4.616E+01,2.500E+00
1.53E+02,3.311E+02,-8.873E+01,7.880E+01,2.500E+00
1.54E+02,3.388E+02,-1.004E+02,3.696E+01,2.500E+00
1.55E+02,3.467E+02,-9.140E+01,1.468E+01,2.500E+00
1.56E+02,3.548E+02,-9.585E+01,1.697E+01,2.500E+00
1.57E+02,3.631E+02,-9.111E+01,6.622E+01,2.500E+00
1.58E+02,3.715E+02,-8.489E+01,3.169E+01,2.500E+00
1.59E+02,3.802E+02,-8.786E+01,6.591E+01,2.500E+00
1.60E+02,3.890E+02,-8.400E+01,4.208E+01,2.500E+00
1.61E+02,3.981E+02,-8.670E+01,6.221E+01,2.500E+00
1.62E+02,4.074E+02,-8.668E+01,5.669E+01,2.500E+00
1.63E+02,4.169E+02,-8.554E+01,4.743E+01,2.500E+00
1.64E+02,4.266E+02,-9.553E+01,-7.992E+01,2.500E+00
1.65E+02,4.365E+02,-8.677E+01,4.870E+01,2.500E+00
1.66E+02,4.467E+02,-8.592E+01,8.965E+01,2.500E+00
1.67E+02,4.571E+02,-8.679E+01,1.135E+02,2.500E+00
1.68E+02,4.677E+02,-8.509E+01,5.406E+01,2.500E+00
1.69E+02,4.786E+02,-8.819E+01,-1.680E+00,2.500E+00
1.70E+02,4.898E+02,-8.320E+01,4.732E+01,2.500E+00
1.71E+02,5.012E+02,-8.248E+01,6.245E+01,2.500E+00
1.72E+02,5.129E+02,-8.298E+01,7.657E+01,2.500E+00
1.73E+02,5.248E+02,-9.432E+01,7.764E+00,2.500E+00
1.74E+02,5.370E+02,-9.004E+01,6.830E+01,2.500E+00
1.75E+02,5.495E+02,-8.687E+01,3.060E+01,2.500E+00
1.76E+02,5.623E+02,-8.863E+01,5.806E+01,2.500E+00
1.77E+02,5.754E+02,-9.175E+01,4.767E+01,2.500E+00
1.78E+02,5.888E+02,-8.334E+01,4.675E+01,2.500E+00
1.79E+02,6.026E+02,-8.529E+01,2.045E+01,2.500E+00
1.80E+02,6.166E+02,-8.276E+01,5.763E+01,2.500E+00
1.81E+02,6.310E+02,-8.200E+01,7.112E+01,2.500E+00
1.82E+02,6.457E+02,-8.440E+01,3.126E+01,2.500E+00
1.83E+02,6.607E+02,-1.016E+02,1.974E+01,2.500E+00
1.84E+02,6.761E+02,-8.455E+01,5.861E+01,2.500E+00
1.85E+02,6.918E+02,-9.124E+01,3.111E+01,2.500E+00
1.86E+02,7.079E+02,-8.964E+01,9.909E+01,2.500E+00
1.87E+02,7.244E+02,-8.604E+01,6.610E+01,2.500E+00
1.88E+02,7.413E+02,-8.275E+01,5.369E+01,2.500E+00
1.89E+02,7.586E+02,-8.446E+01,5.487E+01,2.500E+00
1.90E+02,7.762E+02,-8.195E+01,6.464E+01,2.500E+00
1.91E+02,7.943E+02,-8.188E+01,5.932E+01,2.500E+00
1.92E+02,8.128E+02,-8.099E+01,5.492E+01,2.500E+00
1.93E+02,8.318E+02,-8.670E+01,6.654E+01,2.500E+00
1.94E+02,8.511E+02,-8.769E+01,8.645E+01,2.500E+00
1.95E+02,8.710E+02,-8.236E+01,4.001E+01,2.500E+00
1.96E+02,8.913E+02,-8.458E+01,6.890E+01,2.500E+00
1.97E+02,9.120E+02,-8.588E+01,4.900E+01,2.500E+00
1.98E+02,9.333E+02,-8.476E+01,5.522E+01,2.500E+00
1.99E+02,9.550E+02,-8.774E+01,2.490E+01,2.500E+00
2.00E+02,9.772E+02,-8.096E+01,4.586E+01,2.500E+00
2.01E+02,1.000E+03,-8.278E+01,8.348E+01,2.500E+00
2.02E+02,1.023E+03,-8.479E+01,5.321E+01,2.500E+00
2.03E+02,1.047E+03,-8.176E+01,4.443E+01,2.500E+00
2.04E+02,1.072E+03,-8.517E+01,3.943E+01,2.500E+00
2.05E+02,1.096E+03,-8.292E+01,4.030E+01,2.500E+00
2.06E+02,1.122E+03,-8.530E+01,3.153E+01,2.500E+00
2.07E+02,1.148E+03,-8.158E+01,5.193E+01,2.500E+00
2.08E+02,1.175E+03,-8.057E+01,7.485E+01,2.500E+00
2.09E+02,1.202E+03,-8.194E+01,6.770E+01,2.500E+00
2.10E+02,1.230E+03,-8.415E+01,6.924E+01,2.500E+00
2.11E+02,1.259E+03,-8.028E+01,3.329E+01,2.500E+00
2.12E+02,1.288E+03,-8.489E+01,3.454E+01,2.500E+00
2.13E+02,1.318E+03,-8.398E+01,5.802E+01,2.500E+00
2.14E+02,1.349E+03,-8.138E+01,6.421E+01,2.500E+00
2.15E+02,1.380E+03,-8.096E+01,6.907E+01,2.500E+00
2.16E+02,1.413E+03,-8.115E+01,6.638E+01,2.500E+00
2.17E+02,1.445E+03,-8.218E+01,6.297E+01,2.500E+00
2.18E+02,1.479E+03,-8.006E+01,4.928E+01,2.500E+00
2.19E+02,1.514E+03,-8.130E+01,5.108E+01,2.500E+00
2.20E+02,1.549E+03,-8.376E+01,7.137E+01,2.500E+00
2.21E+02,1.585E+03,-8.017E+01,9.349E+01,2.500E+00
2.22E+02,1.622E+03,-8.111E+01,7.173E+01,2.500E+00
2.23E+02,1.660E+03,-8.075E+01,5.399E+01,2.500E+00
2.24E+02,1.698E+03,-8.003E+01,5.750E+01,2.500E+00
2.25E+02,1.738E+03,-8.026E+01,7.277E+01,2.500E+00
2.26E+02,1.778E+03,-7.856E+01,8.353E+01,2.500E+00
2.27E+02,1.820E+03,-8.017E+01,7.560E+01,2.500E+00
2.28E+02,1.862E+03,-8.109E+01,6.650E+01,2.500E+00
2.29E+02,1.905E+03,-8.106E+01,6.287E+01,2.500E+00
2.30E+02,1.950E+03,-7.775E+01,6.989E+01,2.500E+00
2.31E+02,1.995E+03,-7.908E+01,8.399E+01,2.500E+00
2.32E+02,2.042E+03,-7.973E+01,7.565E+01,2.500E+00
2.33E+02,2.089E+03,-7.944E+01,6.990E+01,2.500E+00
2.34E+02,2.138E+03,-8.093E+01,7.409E+01,2.500E+00
2.35E+02,2.188E+03,-8.037E+01,7.199E+01,2.500E+00
2.36E+02,2.239E+03,-7.805E+01,7.511E+01,2.500E+00
2.37E+02,2.291E+03,-7.819E+01,8.041E+01,2.500E+00
2.38E+02,2.344E+03,-7.684E+01,8.222E+01,2.500E+00
2.39E+02,2.399E+03,-7.618E+01,7.165E+01,2.500E+00
2.40E+02,2.455E+03,-7.808E+01,7.009E+01,2.500E+00
2.41E+02,2.512E+03,-7.825E+01,7.678E+01,2.500E+00
2.42E+02,2.570E+03,-7.895E+01,8.265E+01,2.500E+00
2.43E+02,2.630E+03,-7.717E+01,7.294E+01,2.500E+00
2.44E+02,2.692E+03,-7.680E+01,7.837E+01,2.500E+00
2.45E+02,2.754E+03,-7.572E+01,7.484E+01,2.500E+00
2.46E+02,2.818E+03,-7.517E+01,7.784E+01,2.500E+00
2.47E+02,2.884E+03,-7.762E+01,7.647E+01,2.500E+00
2.48E+02,2.951E+03,-7.636E+01,7.603E+01,2.500E+00
2.49E+02,3.020E+03,-7.567E+01,7.666E+01,2.500E+00
2.50E+02,3.090E+03,-7.650E+01,7.898E+01,2.500E+00
2.51E+02,3.162E+03,-7.477E+01,7.878E+01,2.500E+00
2.52E+02,3.236E+03,-7.478E+01,7.643E+01,2.500E+00
2.53E+02,3.311E+03,-7.558E+01,7.998E+01,2.500E+00
2.54E+02,3.388E+03,-7.647E+01,7.769E+01,2.500E+00
2.55E+02,3.467E+03,-7.517E+01,7.829E+01,2.500E+00
2.56E+02,3.548E+03,-7.375E+01,7.679E+01,2.500E+00
2.57E+02,3.631E+03,-7.399E+01,7.931E+01,2.500E+00
2.58E+02,3.715E+03,-7.438E+01,8.079E+01,2.500E+00
2.59E+02,3.802E+03,-7.528E+01,8.273E+01,2.500E+00
2.60E+02,3.890E+03,-7.359E+01,8.201E+01,2.500E+00
2.61E+02,3.981E+03,-7.295E+01,8.206E+01,2.500E+00
2.62E+02,4.074E+03,-7.349E+01,8.118E+01,2.500E+00
2.63E+02,4.169E+03,-7.402E+01,8.249E+01,2.500E+00
2.64E+02,4.266E+03,-7.367E+01,7.764E+01,2.500E+00
2.65E+02,4.365E+03,-7.375E+01,8.082E+01,2.500E+00
2.66E+02,4.467E+03,-7.304E+01,8.092E+01,2.500E+00
2.67E+02,4.571E+03,-7.190E+01,7.755E+01,2.500E+00
2.68E+02,4.677E+03,-7.210E+01,8.049E+01,2.500E+00
2.69E+02,4.786E+03,-7.146E+01,8.102E+01,2.500E+00
2.70E+02,4.898E+03,-7.177E+01,8.316E+01,2.500E+00
2.71E+02,5.012E+03,-7.168E+01,8.173E+01,2.500E+00
2.72E+02,5.129E+03,-7.274E+01,8.037E+01,2.500E+00
2.73E+02,5.248E+03,-7.188E+01,8.494E+01,2.500E+00
2.74E+02,5.370E+03,-7.116E+01,8.236E+01,2.500E+00
2.75E+02,5.495E+03,-7.087E+01,8.409E+01,2.500E+00
2.76E+02,5.623E+03,-7.003E+01,8.216E+01,2.500E+00
2.77E+02,5.754E+03,-7.092E+01,8.125E+01,2.500E+00
2.78E+02,5.888E+03,-7.042E+01,8.463E+01,2.500E+00
2.79E+02,6.026E+03,-7.067E+01,8.393E+01,2.500E+00
2.80E+02,6.166E+03,-7.043E+01,8.257E+01,2.500E+00
2.81E+02,6.310E+03,-6.979E+01,8.394E+01,2.500E+00
2.82E+02,6.457E+03,-6.926E+01,8.468E+01,2.500E+00
2.83E+02,6.607E+03,-6.975E+01,8.342E+01,2.500E+00
2.84E+02,6.761E+03,-6.921E+01,8.586E+01,2.500E+00
2.85E+02,6.918E+03,-6.942E+01,8.803E+01,2.500E+00
2.86E+02,7.079E+03,-6.887E+01,8.642E+01,2.500E+00
2.87E+02,7.244E+03,-6.839E+01,8.512E+01,2.500E+00
2.88E+02,7.413E+03,-6.823E+01,8.616E+01,2.500E+00
2.89E+02,7.586E+03,-6.867E+01,8.731E+01,2.500E+00
2.90E+02,7.762E+03,-6.868E+01,8.482E+01,2.500E+00
2.91E+02,7.943E+03,-6.785E+01,8.660E+01,2.500E+00
2.92E+02,8.128E+03,-6.739E+01,8.588E+01,2.500E+00
2.93E+02,8.318E+03,-6.766E+01,8.643E+01,2.500E+00
2.94E+02,8.511E+03,-6.718E+01,8.681E+01,2.500E+00
2.95E+02,8.710E+03,-6.756E+01,8.574E+01,2.500E+00
2.96E+02,8.913E+03,-6.748E+01,8.895E+01,2.500E+00
2.97E+02,9.120E+03,-6.698E+01,8.621E+01,2.500E+00
2.98E+02,9.333E+03,-6.619E+01,8.743E+01,2.500E+00
2.99E+02,9.550E+03,-6.584E+01,8.688E+01,2.500E+00
3.00E+02,9.772E+03,-6.580E+01,8.851E+01,2.500E+00
3.01E+02,1.000E+04,-6.590E+01,8.723E+01,2.500E+00
3.02E+02,1.023E+04,-6.596E+01,8.721E+01,2.500E+00
3.03E+02,1.047E+04,-6.544E+01,8.735E+01,2.500E+00
3.04E+02,1.072E+04,-6.508E+01,8.927E+01,2.500E+00
3.05E+02,1.096E+04,-6.504E+01,8.819E+01,2.500E+00
3.06E+02,1.122E+04,-6.492E+01,8.770E+01,2.500E+00
3.07E+02,1.148E+04,-6.466E+01,8.785E+01,2.500E+00
3.08E+02,1.175E+04,-6.423E+01,8.833E+01,2.500E+00
3.09E+02,1.202E+04,-6.421E+01,8.862E+01,2.500E+00
3.10E+02,1.230E+04,-6.414E+01,8.869E+01,2.500E+00
3.11E+02,1.259E+04,-6.376E+01,8.769E+01,2.500E+00
3.12E+02,1.288E+04,-6.352E+01,8.937E+01,2.500E+00
3.13E+02,1.318E+04,-6.352E+01,8.920E+01,2.500E+00
3.14E+02,1.349E+04,-6.319E+01,8.899E+01,2.500E+00
3.15E+02,1.380E+04,-6.292E+01,8.908E+01,2.500E+00
3.16E+02,1.413E+04,-6.276E+01,8.913E+01,2.500E+00
3.17E+02,1.445E+04,-6.247E+01,8.946E+01,2.500E+00
3.18E+02,1.479E+04,-6.204E+01,8.900E+01,2.500E+00
3.19E+02,1.514E+04,-6.217E+01,8.923E+01,2.500E+00
3.20E+02,1.549E+04,-6.188E+01,8.929E+01,2.500E+00
3.21E+02,1.585E+04,-6.150E+01,8.981E+01,2.500E+00
3.22E+02,1.622E+04,-6.144E+01,8.986E+01,2.500E+00
3.23E+02,1.660E+04,-6.115E+01,8.858E+01,2.500E+00
3.24E+02,1.698E+04,-6.092E+01,8.975E+01,2.500E+00
3.25E+02,1.738E+04,-6.075E+01,8.941E+01,2.500E+00
3.26E+02,1.778E+04,-6.059E+01,8.979E+01,2.500E+00
3.27E+02,1.820E+04,-6.045E+01,8.939E+01,2.500E+00
3.28E+02,1.862E+04,-6.016E+01,8.955E+01,2.500E+00
3.29E+02,1.905E+04,-5.997E+01,8.965E+01,2.500E+00
3.30E+02,1.950E+04,-5.973E+01,8.977E+01,2.500E+00
3.31E+02,1.995E+04,-5.947E+01,8.963E+01,2.500E+00
3.32E+02,2.042E+04,-5.938E+01,9.022E+01,2.500E+00
3.33E+02,2.089E+04,-5.911E+01,8.954E+01,2.500E+00
3.34E+02,2.138E+04,-5.890E+01,8.950E+01,2.500E+00
3.35E+02,2.188E+04,-5.867E+01,8.965E+01,2.500E+00
3.36E+02,2.239E+04,-5.850E+01,8.956E+01,2.500E+00
3.37E+02,2.291E+04,-5.829E+01,8.948E+01,2.500E+00
3.38E+02,2.344E+04,-5.811E+01,8.937E+01,2.500E+00
3.39E+02,2.399E+04,-5.788E+01,8.957E+01,2.500E+00
3.40E+02,2.455E+04,-5.767E+01,8.972E+01,2.500E+00
3.41E+02,2.512E+04,-5.742E+01,8.966E+01,2.500E+00
3.42E+02,2.570E+04,-5.727E+01,8.949E+01,2.500E+00
3.43E+02,2.630E+04,-5.698E+01,8.968E+01,2.500E+00
3.44E+02,2.692E+04,-5.672E+01,8.938E+01,2.500E+00
3.45E+02,2.754E+04,-5.660E+01,8.895E+01,2.500E+00
3.46E+02,2.818E+04,-5.647E+01,9.012E+01,2.500E+00
3.47E+02,2.884E+04,-5.622E+01,8.952E+01,2.500E+00
3.48E+02,2.951E+04,-5.593E+01,8.932E+01,2.500E+00
3.49E+02,3.020E+04,-5.584E+01,8.912E+01,2.500E+00
3.50E+02,3.090E+04,-5.563E+01,8.952E+01,2.500E+00
3.51E+02,3.162E+04,-5.541E+01,8.893E+01,2.500E+00
3.52E+02,3.236E+04,-5.517E+01,8.911E+01,2.500E+00
3.53E+02,3.311E+04,-5.509E+01,8.928E+01,2.500E+00
3.54E+02,3.388E+04,-5.481E+01,8.919E+01,2.500E+00
3.55E+02,3.467E+04,-5.458E+01,8.914E+01,2.500E+00
3.56E+02,3.548E+04,-5.443E+01,8.912E+01,2.500E+00
3.57E+02,3.631E+04,-5.423E+01,8.928E+01,2.500E+00
3.58E+02,3.715E+04,-5.398E+01,8.913E+01,2.500E+00
3.59E+02,3.802E+04,-5.382E+01,8.891E+01,2.500E+00
3.60E+02,3.890E+04,-5.362E+01,8.879E+01,2.500E+00
3.61E+02,3.981E+04,-5.342E+01,8.897E+01,2.500E+00
3.62E+02,4.074E+04,-5.326E+01,8.907E+01,2.500E+00
3.63E+02,4.169E+04,-5.301E+01,8.885E+01,2.500E+00
3.64E+02,4.266E+04,-5.281E+01,8.877E+01,2.500E+00
3.65E+02,4.365E+04,-5.266E+01,8.866E+01,2.500E+00
3.66E+02,4.467E+04,-5.243E+01,8.871E+01,2.500E+00
3.67E+02,4.571E+04,-5.227E+01,8.879E+01,2.500E+00
3.68E+02,4.677E+04,-5.201E+01,8.870E+01,2.500E+00
3.69E+02,4.786E+04,-5.186E+01,8.859E+01,2.500E+00
3.70E+02,4.898E+04,-5.164E+01,8.845E+01,2.500E+00
3.71E+02,5.012E+04,-5.144E+01,8.859E+01,2.500E+00
3.72E+02,5.129E+04,-5.125E+01,8.869E+01,2.500E+00
3.73E+02,5.248E+04,-5.103E+01,8.850E+01,2.500E+00
3.74E+02,5.370E+04,-5.087E+01,8.841E+01,2.500E+00
3.75E+02,5.495E+04,-5.065E+01,8.846E+01,2.500E+00
3.76E+02,5.623E+04,-5.046E+01,8.837E+01,2.500E+00
3.77E+02,5.754E+04,-5.024E+01,8.832E+01,2.500E+00
3.78E+02,5.888E+04,-5.007E+01,8.834E+01,2.500E+00
3.79E+02,6.026E+04,-4.984E+01,8.825E+01,2.500E+00
3.80E+02,6.166E+04,-4.965E+01,8.818E+01,2.500E+00
3.81E+02,6.310E+04,-4.945E+01,8.823E+01,2.500E+00
3.82E+02,6.457E+04,-4.926E+01,8.826E+01,2.500E+00
3.83E+02,6.607E+04,-4.904E+01,8.827E+01,2.500E+00
3.84E+02,6.761E+04,-4.880E+01,8.801E+01,2.500E+00
3.85E+02,6.918E+04,-4.863E+01,8.825E+01,2.500E+00
3.86E+02,7.079E+04,-4.847E+01,8.800E+01,2.500E+00
3.87E+02,7.244E+04,-4.825E+01,8.801E+01,2.500E+00
3.88E+02,7.413E+04,-4.805E+01,8.792E+01,2.500E+00
3.89E+02,7.586E+04,-4.786E+01,8.795E+01,2.500E+00
3.90E+02,7.762E+04,-4.768E+01,8.800E+01,2.500E+00
3.91E+02,7.943E+04,-4.745E+01,8.773E+01,2.500E+00
3.92E+02,8.128E+04,-4.725E+01,8.778E+01,2.500E+00
3.93E+02,8.318E+04,-4.709E+01,8.783E+01,2.500E+00
3.94E+02,8.511E+04,-4.686E+01,8.769E+01,2.500E+00
3.95E+02,8.710E+04,-4.664E+01,8.772E+01,2.500E+00
3.96E+02,8.913E+04,-4.650E+01,8.772E+01,2.500E+00
3.97E+02,9.120E+04,-4.628E+01,8.760E+01,2.500E+00
