in Sa,Frequency in Hz,Gain in dB,Phase in °,Amplitude in Vpp
1.00E+00,1.000E+01,-8.960E-03,-5.873E-02,2.500E+00
2.00E+00,1.023E+01,-5.880E-03,-6.093E-02,2.500E+00
3.00E+00,1.047E+01,-8.579E-03,-4.997E-02,2.500E+00
4.00E+00,1.072E+01,-1.167E-02,-5.418E-02,2.500E+00
5.00E+00,1.096E+01,-1.029E-02,-4.666E-02,2.500E+00
6.00E+00,1.122E+01,-9.005E-03,-5.540E-02,2.500E+00
7.00E+00,1.148E+01,-9.019E-03,-6.564E-02,2.500E+00
8.00E+00,1.175E+01,-9.951E-03,-6.061E-02,2.500E+00
9.00E+00,1.202E+01,-7.427E-03,-5.553E-02,2.500E+00
1.00E+01,1.230E+01,-1.086E-02,-4.745E-02,2.500E+00
1.10E+01,1.259E+01,-9.066E-03,-6.221E-02,2.500E+00
1.20E+01,1.288E+01,-7.109E-03,-6.136E-02,2.500E+00
1.30E+01,1.318E+01,-7.813E-03,-5.612E-02,2.500E+00
1.40E+01,1.349E+01,-7.445E-03,-6.187E-02,2.500E+00
1.50E+01,1.380E+01,-8.854E-03,-5.302E-02,2.500E+00
1.60E+01,1.413E+01,-9.358E-03,-6.462E-02,2.500E+00
1.70E+01,1.445E+01,-9.348E-03,-5.454E-02,2.500E+00
1.80E+01,1.479E+01,-8.172E-03,-5.108E-02,2.500E+00
1.90E+01,1.514E+01,-7.710E-03,-6.217E-02,2.500E+00
2.00E+01,1.549E+01,-1.091E-02,-6.953E-02,2.500E+00
2.10E+01,1.585E+01,-9.796E-03,-6.276E-02,2.500E+00
2.20E+01,1.622E+01,-9.758E-03,-5.679E-02,2.500E+00
2.30E+01,1.660E+01,-9.051E-03,-7.318E-02,2.500E+00
2.40E+01,1.698E+01,-8.830E-03,-5.740E-02,2.500E+00
2.50E+01,1.738E+01,-7.912E-03,-6.402E-02,2.500E+00
2.60E+01,1.778E+01,-8.450E-03,-6.892E-02,2.500E+00
2.70E+01,1.820E+01,-8.004E-03,-8.440E-02,2.500E+00
2.80E+01,1.862E+01,-9.669E-03,-6.773E-02,2.500E+00
2.90E+01,1.905E+01,-9.045E-03,-6.437E-02,2.500E+00
3.00E+01,1.950E+01,-7.575E-03,-7.192E-02,2.500E+00
3.10E+01,1.995E+01,-9.194E-03,-7.233E-02,2.500E+00
3.20E+01,2.042E+01,-7.334E-03,-7.168E-02,2.500E+00
3.30E+01,2.089E+01,-7.140E-03,-6.342E-02,2.500E+00
3.40E+01,2.138E+01,-8.723E-03,-7.914E-02,2.500E+00
3.50E+01,2.188E+01,-7.494E-03,-8.177E-02,2.500E+00
3.60E+01,2.239E+01,-8.428E-03,-8.314E-02,2.500E+00
3.70E+01,2.291E+01,-9.473E-03,-8.054E-02,2.500E+00
3.80E+01,2.344E+01,-9.013E-03,-8.120E-02,2.500E+00
3.90E+01,2.399E+01,-6.863E-03,-9.234E-02,2.500E+00
4.00E+01,2.455E+01,-9.345E-03,-8.838E-02,2.500E+00
4.10E+01,2.512E+01,-8.588E-03,-9.145E-02,2.500E+00
4.20E+01,2.570E+01,-9.845E-03,-8.951E-02,2.500E+00
4.30E+01,2.630E+01,-1.098E-02,-9.045E-02,2.500E+00
4.40E+01,2.692E+01,-8.373E-03,-9.633E-02,2.500E+00
4.50E+01,2.754E+01,-9.525E-03,-8.448E-02,2.500E+00
4.60E+01,2.818E+01,-7.276E-03,-9.486E-02,2.500E+00
4.70E+01,2.884E+01,-6.444E-03,-1.050E-01,2.500E+00
4.80E+01,2.951E+01,-7.224E-03,-1.053E-01,2.500E+00
4.90E+01,3.020E+01,-5.413E-03,-9.700E-02,2.500E+00
5.00E+01,3.090E+01,-7.029E-03,-1.059E-01,2.500E+00
5.10E+01,3.162E+01,-7.304E-03,-9.917E-02,2.500E+00
5.20E+01,3.236E+01,-6.088E-03,-1.127E-01,2.500E+00
5.30E+01,3.311E+01,-6.869E-03,-1.123E-01,2.500E+00
5.40E+01,3.388E+01,-7.457E-03,-1.066E-01,2.500E+00
5.50E+01,3.467E+01,-6.745E-03,-1.226E-01,2.500E+00
5.60E+01,3.548E+01,-9.563E-03,-1.179E-01,2.500E+00
5.70E+01,3.631E+01,-8.037E-03,-1.218E-01,2.500E+00
5.80E+01,3.715E+01,-7.901E-03,-1.284E-01,2.500E+00
5.90E+01,3.802E+01,-7.965E-03,-1.207E-01,2.500E+00
6.00E+01,3.890E+01,-6.424E-03,-1.282E-01,2.500E+00
6.10E+01,3.981E+01,-7.222E-03,-1.264E-01,2.500E+00
6.20E+01,4.074E+01,-8.367E-03,-1.252E-01,2.500E+00
6.30E+01,4.169E+01,-5.512E-03,-1.323E-01,2.500E+00
6.40E+01,4.266E+01,-6.805E-03,-1.528E-01,2.500E+00
6.50E+01,4.365E+01,-7.798E-03,-1.583E-01,2.500E+00
6.60E+01,4.467E+01,-6.326E-03,-1.566E-01,2.500E+00
6.70E+01,4.571E+01,-6.744E-03,-1.550E-01,2.500E+00
6.80E+01,4.677E+01,-5.010E-03,-1.517E-01,2.500E+00
6.90E+01,4.786E+01,-6.643E-03,-1.542E-01,2.500E+00
7.00E+01,4.898E+01,-6.552E-03,-1.580E-01,2.500E+00
7.10E+01,5.012E+01,-6.690E-03,-1.598E-01,2.500E+00
7.20E+01,5.129E+01,-6.646E-03,-1.617E-01,2.500E+00
7.30E+01,5.248E+01,-6.955E-03,-1.701E-01,2.500E+00
7.40E+01,5.370E+01,-5.180E-03,-1.759E-01,2.500E+00
7.50E+01,5.495E+01,-8.148E-03,-1.721E-01,2.500E+00
7.60E+01,5.623E+01,-7.890E-03,-1.814E-01,2.500E+00
7.70E+01,5.754E+01,-7.159E-03,-1.781E-01,2.500E+00
7.80E+01,5.888E+01,-7.874E-03,-1.926E-01,2.500E+00
7.90E+01,6.026E+01,-8.266E-03,-1.899E-01,2.500E+00
8.00E+01,6.166E+01,-8.071E-03,-1.888E-01,2.500E+00
8.10E+01,6.310E+01,-6.942E-03,-1.967E-01,2.500E+00
8.20E+01,6.457E+01,-7.793E-03,-2.007E-01,2.500E+00
8.30E+01,6.607E+01,-8.925E-03,-2.080E-01,2.500E+00
8.40E+01,6.761E+01,-6.496E-03,-2.097E-01,2.500E+00
8.50E+01,6.918E+01,-7.723E-03,-2.201E-01,2.500E+00
8.60E+01,7.079E+01,-6.772E-03,-2.196E-01,2.500E+00
8.70E+01,7.244E+01,-9.254E-03,-2.263E-01,2.500E+00
8.80E+01,7.413E+01,-6.321E-03,-2.268E-01,2.500E+00
8.90E+01,7.586E+01,-7.069E-03,-2.418E-01,2.500E+00
9.00E+01,7.762E+01,-8.053E-03,-2.378E-01,2.500E+00
9.10E+01,7.943E+01,-5.835E-03,-2.469E-01,2.500E+00
9.20E+01,8.128E+01,-7.126E-03,-2.563E-01,2.500E+00
9.30E+01,8.318E+01,-5.546E-03,-2.556E-01,2.500E+00
9.40E+01,8.511E+01,-7.386E-03,-2.683E-01,2.500E+00
9.50E+01,8.710E+01,-6.207E-03,-2.697E-01,2.500E+00
9.60E+01,8.913E+01,-6.206E-03,-2.818E-01,2.500E+00
9.70E+01,9.120E+01,-5.670E-03,-2.851E-01,2.500E+00
9.80E+01,9.333E+01,-5.051E-03,-2.900E-01,2.500E+00
9.90E+01,9.550E+01,-6.295E-03,-3.055E-01,2.500E+00
1.00E+02,9.772E+01,-5.521E-03,-3.041E-01,2.500E+00
1.01E+02,1.000E+02,-6.575E-03,-3.127E-01,2.500E+00
1.02E+02,1.023E+02,-7.142E-03,-3.100E-01,2.500E+00
1.03E+02,1.047E+02,-6.757E-03,-3.172E-01,2.500E+00
1.04E+02,1.072E+02,-5.887E-03,-3.291E-01,2.500E+00
1.05E+02,1.096E+02,-6.179E-03,-3.438E-01,2.500E+00
1.06E+02,1.122E+02,-7.147E-03,-3.486E-01,2.500E+00
1.07E+02,1.148E+02,-5.646E-03,-3.632E-01,2.500E+00
1.08E+02,1.175E+02,-5.691E-03,-3.697E-01,2.500E+00
1.09E+02,1.202E+02,-8.781E-03,-3.735E-01,2.500E+00
1.10E+02,1.230E+02,-9.132E-03,-3.819E-01,2.500E+00
1.11E+02,1.259E+02,-6.926E-03,-3.895E-01,2.500E+00
1.12E+02,1.288E+02,-6.679E-03,-3.994E-01,2.500E+00
1.13E+02,1.318E+02,-6.345E-03,-4.018E-01,2.500E+00
1.14E+02,1.349E+02,-8.120E-03,-4.202E-01,2.500E+00
1.15E+02,1.380E+02,-7.768E-03,-4.322E-01,2.500E+00
1.16E+02,1.413E+02,-6.183E-03,-4.426E-01,2.500E+00
1.17E+02,1.445E+02,-7.857E-03,-4.492E-01,2.500E+00
1.18E+02,1.479E+02,-8.150E-03,-4.630E-01,2.500E+00
1.19E+02,1.514E+02,-4.945E-03,-4.737E-01,2.500E+00
1.20E+02,1.549E+02,-7.597E-03,-4.805E-01,2.500E+00
1.21E+02,1.585E+02,-7.874E-03,-4.981E-01,2.500E+00
1.22E+02,1.622E+02,-7.155E-03,-5.022E-01,2.500E+00
1.23E+02,1.660E+02,-8.083E-03,-5.152E-01,2.500E+00
1.24E+02,1.698E+02,-7.679E-03,-5.241E-01,2.500E+00
1.25E+02,1.738E+02,-8.870E-03,-5.380E-01,2.500E+00
1.26E+02,1.778E+02,-7.477E-03,-5.505E-01,2.500E+00
1.27E+02,1.820E+02,-8.311E-03,-5.671E-01,2.500E+00
1.28E+02,1.862E+02,-7.059E-03,-5.764E-01,2.500E+00
1.29E+02,1.905E+02,-8.606E-03,-5.918E-01,2.500E+00
1.30E+02,1.950E+02,-9.008E-03,-6.102E-01,2.500E+00
1.31E+02,1.995E+02,-8.809E-03,-6.210E-01,2.500E+00
1.32E+02,2.042E+02,-9.609E-03,-6.413E-01,2.500E+00
1.33E+02,2.089E+02,-7.098E-03,-6.428E-01,2.500E+00
1.34E+02,2.138E+02,-7.844E-03,-6.710E-01,2.500E+00
1.35E+02,2.188E+02,-9.049E-03,-6.776E-01,2.500E+00
1.36E+02,2.239E+02,-1.182E-02,-6.980E-01,2.500E+00
1.37E+02,2.291E+02,-1.014E-02,-7.074E-01,2.500E+00
1.38E+02,2.344E+02,-1.136E-02,-7.224E-01,2.500E+00
1.39E+02,2.399E+02,-9.762E-03,-7.461E-01,2.500E+00
1.40E+02,2.455E+02,-9.227E-03,-7.560E-01,2.500E+00
1.41E+02,2.512E+02,-1.007E-02,-7.751E-01,2.500E+00
1.42E+02,2.570E+02,-9.627E-03,-7.960E-01,2.500E+00
1.43E+02,2.630E+02,-1.197E-02,-8.207E-01,2.500E+00
1.44E+02,2.692E+02,-1.028E-02,-8.362E-01,2.500E+00
1.45E+02,2.754E+02,-1.100E-02,-8.520E-01,2.500E+00
1.46E+02,2.818E+02,-9.597E-03,-8.751E-01,2.500E+00
1.47E+02,2.884E+02,-1.211E-02,-8.969E-01,2.500E+00
1.48E+02,2.951E+02,-1.317E-02,-9.165E-01,2.500E+00
1.49E+02,3.020E+02,-1.313E-02,-9.417E-01,2.500E+00
1.50E+02,3.090E+02,-1.355E-02,-9.565E-01,2.500E+00
1.51E+02,3.162E+02,-1.334E-02,-9.745E-01,2.500E+00
1.52E+02,3.236E+02,-1.228E-02,-1.006E+00,2.500E+00
1.53E+02,3.311E+02,-1.261E-02,-1.024E+00,2.500E+00
1.54E+02,3.388E+02,-1.391E-02,-1.051E+00,2.500E+00
1.55E+02,3.467E+02,-1.259E-02,-1.074E+00,2.500E+00
1.56E+02,3.548E+02,-1.220E-02,-1.100E+00,2.500E+00
1.57E+02,3.631E+02,-1.215E-02,-1.126E+00,2.500E+00
1.58E+02,3.715E+02,-1.269E-02,-1.150E+00,2.500E+00
1.59E+02,3.802E+02,-1.359E-02,-1.181E+00,2.500E+00
1.60E+02,3.890E+02,-1.291E-02,-1.202E+00,2.500E+00
1.61E+02,3.981E+02,-1.366E-02,-1.236E+00,2.500E+00
1.62E+02,4.074E+02,-1.125E-02,-1.259E+00,2.500E+00
1.63E+02,4.169E+02,-1.407E-02,-1.291E+00,2.500E+00
1.64E+02,4.266E+02,-1.334E-02,-1.325E+00,2.500E+00
1.65E+02,4.365E+02,-1.461E-02,-1.348E+00,2.500E+00
1.66E+02,4.467E+02,-1.300E-02,-1.379E+00,2.500E+00
1.67E+02,4.571E+02,-1.310E-02,-1.409E+00,2.500E+00
1.68E+02,4.677E+02,-1.484E-02,-1.442E+00,2.500E+00
1.69E+02,4.786E+02,-1.321E-02,-1.475E+00,2.500E+00
1.70E+02,4.898E+02,-1.461E-02,-1.523E+00,2.500E+00
1.71E+02,5.012E+02,-1.384E-02,-1.542E+00,2.500E+00
1.72E+02,5.129E+02,-1.517E-02,-1.589E+00,2.500E+00
1.73E+02,5.248E+02,-1.462E-02,-1.622E+00,2.500E+00
1.74E+02,5.370E+02,-1.589E-02,-1.657E+00,2.500E+00
1.75E+02,5.495E+02,-1.485E-02,-1.697E+00,2.500E+00
1.76E+02,5.623E+02,-1.569E-02,-1.734E+00,2.500E+00
1.77E+02,5.754E+02,-1.671E-02,-1.779E+00,2.500E+00
1.78E+02,5.888E+02,-1.694E-02,-1.822E+00,2.500E+00
1.79E+02,6.026E+02,-1.927E-02,-1.859E+00,2.500E+00
1.80E+02,6.166E+02,-1.838E-02,-1.906E+00,2.500E+00
1.81E+02,6.310E+02,-2.069E-02,-1.943E+00,2.500E+00
1.82E+02,6.457E+02,-1.917E-02,-1.993E+00,2.500E+00
1.83E+02,6.607E+02,-2.143E-02,-2.031E+00,2.500E+00
1.84E+02,6.761E+02,-2.267E-02,-2.085E+00,2.500E+00
1.85E+02,6.918E+02,-2.075E-02,-2.131E+00,2.500E+00
1.86E+02,7.079E+02,-2.104E-02,-2.179E+00,2.500E+00
1.87E+02,7.244E+02,-2.174E-02,-2.232E+00,2.500E+00
1.88E+02,7.413E+02,-2.231E-02,-2.279E+00,2.500E+00
1.89E+02,7.586E+02,-2.420E-02,-2.338E+00,2.500E+00
1.90E+02,7.762E+02,-2.478E-02,-2.387E+00,2.500E+00
1.91E+02,7.943E+02,-2.394E-02,-2.441E+00,2.500E+00
1.92E+02,8.128E+02,-2.643E-02,-2.502E+00,2.500E+00
1.93E+02,8.318E+02,-2.741E-02,-2.555E+00,2.500E+00
1.94E+02,8.511E+02,-2.899E-02,-2.612E+00,2.500E+00
1.95E+02,8.710E+02,-2.943E-02,-2.676E+00,2.500E+00
1.96E+02,8.913E+02,-3.043E-02,-2.737E+00,2.500E+00
1.97E+02,9.120E+02,-3.042E-02,-2.793E+00,2.500E+00
1.98E+02,9.333E+02,-2.911E-02,-2.859E+00,2.500E+00
1.99E+02,9.550E+02,-3.255E-02,-2.916E+00,2.500E+00
2.00E+02,9.772E+02,-3.224E-02,-2.991E+00,2.500E+00
2.01E+02,1.000E+03,-3.610E-02,-3.057E+00,2.500E+00
2.02E+02,1.023E+03,-3.416E-02,-3.124E+00,2.500E+00
2.03E+02,1.047E+03,-3.754E-02,-3.196E+00,2.500E+00
2.04E+02,1.072E+03,-3.823E-02,-3.261E+00,2.500E+00
2.05E+02,1.096E+03,-4.096E-02,-3.343E+00,2.500E+00
2.06E+02,1.122E+03,-4.077E-02,-3.417E+00,2.500E+00
2.07E+02,1.148E+03,-4.131E-02,-3.496E+00,2.500E+00
2.08E+02,1.175E+03,-4.521E-02,-3.577E+00,2.500E+00
2.09E+02,1.202E+03,-4.654E-02,-3.655E+00,2.500E+00
2.10E+02,1.230E+03,-4.731E-02,-3.738E+00,2.500E+00
2.11E+02,1.259E+03,-4.985E-02,-3.808E+00,2.500E+00
2.12E+02,1.288E+03,-4.853E-02,-3.899E+00,2.500E+00
2.13E+02,1.318E+03,-5.116E-02,-3.988E+00,2.500E+00
2.14E+02,1.349E+03,-5.729E-02,-4.080E+00,2.500E+00
2.15E+02,1.380E+03,-5.566E-02,-4.174E+00,2.500E+00
2.16E+02,1.413E+03,-6.038E-02,-4.262E+00,2.500E+00
2.17E+02,1.445E+03,-5.989E-02,-4.355E+00,2.500E+00
2.18E+02,1.479E+03,-6.203E-02,-4.449E+00,2.500E+00
2.19E+02,1.514E+03,-6.263E-02,-4.548E+00,2.500E+00
2.20E+02,1.549E+03,-6.691E-02,-4.659E+00,2.500E+00
2.21E+02,1.585E+03,-6.979E-02,-4.759E+00,2.500E+00
2.22E+02,1.622E+03,-7.261E-02,-4.864E+00,2.500E+00
2.23E+02,1.660E+03,-7.297E-02,-4.964E+00,2.500E+00
2.24E+02,1.698E+03,-7.586E-02,-5.079E+00,2.500E+00
2.25E+02,1.738E+03,-7.765E-02,-5.191E+00,2.500E+00
2.26E+02,1.778E+03,-8.179E-02,-5.307E+00,2.500E+00
2.27E+02,1.820E+03,-8.510E-02,-5.433E+00,2.500E+00
2.28E+02,1.862E+03,-8.725E-02,-5.541E+00,2.500E+00
2.29E+02,1.905E+03,-8.940E-02,-5.659E+00,2.500E+00
2.30E+02,1.950E+03,-9.272E-02,-5.788E+00,2.500E+00
2.31E+02,1.995E+03,-9.461E-02,-5.922E+00,2.500E+00
2.32E+02,2.042E+03,-9.704E-02,-6.050E+00,2.500E+00
2.33E+02,2.089E+03,-1.015E-01,-6.181E+00,2.500E+00
2.34E+02,2.138E+03,-1.018E-01,-6.321E+00,2.500E+00
2.35E+02,2.188E+03,-1.061E-01,-6.453E+00,2.500E+00
2.36E+02,2.239E+03,-1.091E-01,-6.600E+00,2.500E+00
2.37E+02,2.291E+03,-1.134E-01,-6.744E+00,2.500E+00
2.38E+02,2.344E+03,-1.190E-01,-6.887E+00,2.500E+00
2.39E+02,2.399E+03,-1.222E-01,-7.035E+00,2.500E+00
2.40E+02,2.455E+03,-1.263E-01,-7.198E+00,2.500E+00
2.41E+02,2.512E+03,-1.294E-01,-7.356E+00,2.500E+00
2.42E+02,2.570E+03,-1.327E-01,-7.516E+00,2.500E+00
2.43E+02,2.630E+03,-1.379E-01,-7.676E+00,2.500E+00
2.44E+02,2.692E+03,-1.440E-01,-7.854E+00,2.500E+00
2.45E+02,2.754E+03,-1.451E-01,-8.023E+00,2.500E+00
2.46E+02,2.818E+03,-1.527E-01,-8.200E+00,2.500E+00
2.47E+02,2.884E+03,-1.576E-01,-8.383E+00,2.500E+00
2.48E+02,2.951E+03,-1.616E-01,-8.566E+00,2.500E+00
2.49E+02,3.020E+03,-1.660E-01,-8.749E+00,2.500E+00
2.50E+02,3.090E+03,-1.725E-01,-8.950E+00,2.500E+00
2.51E+02,3.162E+03,-1.781E-01,-9.140E+00,2.500E+00
2.52E+02,3.236E+03,-1.827E-01,-9.341E+00,2.500E+00
2.53E+02,3.311E+03,-1.887E-01,-9.545E+00,2.500E+00
2.54E+02,3.388E+03,-1.928E-01,-9.755E+00,2.500E+00
2.55E+02,3.467E+03,-2.007E-01,-9.969E+00,2.500E+00
2.56E+02,3.548E+03,-2.096E-01,-1.019E+01,2.500E+00
2.57E+02,3.631E+03,-2.156E-01,-1.041E+01,2.500E+00
2.58E+02,3.715E+03,-2.222E-01,-1.064E+01,2.500E+00
2.59E+02,3.802E+03,-2.295E-01,-1.088E+01,2.500E+00
2.60E+02,3.890E+03,-2.382E-01,-1.112E+01,2.500E+00
2.61E+02,3.981E+03,-2.468E-01,-1.136E+01,2.500E+00
2.62E+02,4.074E+03,-2.537E-01,-1.161E+01,2.500E+00
2.63E+02,4.169E+03,-2.626E-01,-1.186E+01,2.500E+00
2.64E+02,4.266E+03,-2.719E-01,-1.213E+01,2.500E+00
2.65E+02,4.365E+03,-2.781E-01,-1.239E+01,2.500E+00
2.66E+02,4.467E+03,-2.918E-01,-1.266E+01,2.500E+00
2.67E+02,4.571E+03,-3.019E-01,-1.294E+01,2.500E+00
2.68E+02,4.677E+03,-3.117E-01,-1.322E+01,2.500E+00
2.69E+02,4.786E+03,-3.251E-01,-1.351E+01,2.500E+00
2.70E+02,4.898E+03,-3.368E-01,-1.379E+01,2.500E+00
2.71E+02,5.012E+03,-3.479E-01,-1.410E+01,2.500E+00
2.72E+02,5.129E+03,-3.576E-01,-1.442E+01,2.500E+00
2.73E+02,5.248E+03,-3.707E-01,-1.473E+01,2.500E+00
2.74E+02,5.370E+03,-3.835E-01,-1.504E+01,2.500E+00
2.75E+02,5.495E+03,-4.005E-01,-1.538E+01,2.500E+00
2.76E+02,5.623E+03,-4.160E-01,-1.570E+01,2.500E+00
2.77E+02,5.754E+03,-4.313E-01,-1.604E+01,2.500E+00
2.78E+02,5.888E+03,-4.445E-01,-1.640E+01,2.500E+00
2.79E+02,6.026E+03,-4.587E-01,-1.675E+01,2.500E+00
2.80E+02,6.166E+03,-4.782E-01,-1.710E+01,2.500E+00
2.81E+02,6.310E+03,-4.966E-01,-1.748E+01,2.500E+00
2.82E+02,6.457E+03,-5.192E-01,-1.785E+01,2.500E+00
2.83E+02,6.607E+03,-5.368E-01,-1.822E+01,2.500E+00
2.84E+02,6.761E+03,-5.551E-01,-1.862E+01,2.500E+00
2.85E+02,6.918E+03,-5.739E-01,-1.901E+01,2.500E+00
2.86E+02,7.079E+03,-5.988E-01,-1.942E+01,2.500E+00
2.87E+02,7.244E+03,-6.240E-01,-1.983E+01,2.500E+00
2.88E+02,7.413E+03,-6.434E-01,-2.024E+01,2.500E+00
2.89E+02,7.586E+03,-6.675E-01,-2.067E+01,2.500E+00
2.90E+02,7.762E+03,-6.924E-01,-2.110E+01,2.500E+00
2.91E+02,7.943E+03,-7.221E-01,-2.154E+01,2.500E+00
2.92E+02,8.128E+03,-7.518E-01,-2.199E+01,2.500E+00
2.93E+02,8.318E+03,-7.789E-01,-2.244E+01,2.500E+00
2.94E+02,8.511E+03,-8.070E-01,-2.291E+01,2.500E+00
2.95E+02,8.710E+03,-8.369E-01,-2.338E+01,2.500E+00
2.96E+02,8.913E+03,-8.667E-01,-2.385E+01,2.500E+00
2.97E+02,9.120E+03,-9.038E-01,-2.433E+01,2.500E+00
2.98E+02,9.333E+03,-9.389E-01,-2.483E+01,2.500E+00
2.99E+02,9.550E+03,-9.792E-01,-2.533E+01,2.500E+00
3.00E+02,9.772E+03,-1.018E+00,-2.583E+01,2.500E+00
3.01E+02,1.000E+04,-1.054E+00,-2.635E+01,2.500E+00
3.02E+02,1.023E+04,-1.088E+00,-2.687E+01,2.500E+00
3.03E+02,1.047E+04,-1.136E+00,-2.740E+01,2.500E+00
3.04E+02,1.072E+04,-1.182E+00,-2.793E+01,2.500E+00
3.05E+02,1.096E+04,-1.225E+00,-2.847E+01,2.500E+00
3.06E+02,1.122E+04,-1.268E+00,-2.902E+01,2.500E+00
3.07E+02,1.148E+04,-1.318E+00,-2.957E+01,2.500E+00
3.08E+02,1.175E+04,-1.373E+00,-3.013E+01,2.500E+00
3.09E+02,1.202E+04,-1.420E+00,-3.070E+01,2.500E+00
3.10E+02,1.230E+04,-1.466E+00,-3.127E+01,2.500E+00
3.11E+02,1.259E+04,-1.532E+00,-3.186E+01,2.500E+00
3.12E+02,1.288E+04,-1.590E+00,-3.244E+01,2.500E+00
3.13E+02,1.318E+04,-1.642E+00,-3.304E+01,2.500E+00
3.14E+02,1.349E+04,-1.706E+00,-3.363E+01,2.500E+00
3.15E+02,1.380E+04,-1.774E+00,-3.423E+01,2.500E+00
3.16E+02,1.413E+04,-1.832E+00,-3.484E+01,2.500E+00
3.17E+02,1.445E+04,-1.896E+00,-3.544E+01,2.500E+00
3.18E+02,1.479E+04,-1.971E+00,-3.606E+01,2.500E+00
3.19E+02,1.514E+04,-2.033E+00,-3.669E+01,2.500E+00
3.20E+02,1.549E+04,-2.108E+00,-3.731E+01,2.500E+00
3.21E+02,1.585E+04,-2.188E+00,-3.793E+01,2.500E+00
3.22E+02,1.622E+04,-2.258E+00,-3.857E+01,2.500E+00
3.23E+02,1.660E+04,-2.344E+00,-3.920E+01,2.500E+00
3.24E+02,1.698E+04,-2.423E+00,-3.984E+01,2.500E+00
3.25E+02,1.738E+04,-2.504E+00,-4.047E+01,2.500E+00
3.26E+02,1.778E+04,-2.595E+00,-4.111E+01,2.500E+00
3.27E+02,1.820E+04,-2.676E+00,-4.176E+01,2.500E+00
3.28E+02,1.862E+04,-2.774E+00,-4.241E+01,2.500E+00
3.29E+02,1.905E+04,-2.859E+00,-4.306E+01,2.500E+00
3.30E+02,1.950E+04,-2.958E+00,-4.370E+01,2.500E+00
3.31E+02,1.995E+04,-3.054E+00,-4.435E+01,2.500E+00
3.32E+02,2.042E+04,-3.152E+00,-4.500E+01,2.500E+00
3.33E+02,2.089E+04,-3.258E+00,-4.565E+01,2.500E+00
3.34E+02,2.138E+04,-3.353E+00,-4.630E+01,2.500E+00
3.35E+02,2.188E+04,-3.466E+00,-4.695E+01,2.500E+00
3.36E+02,2.239E+04,-3.591E+00,-4.759E+01,2.500E+00
3.37E+02,2.291E+04,-3.704E+00,-4.824E+01,2.500E+00
3.38E+02,2.344E+04,-3.813E+00,-4.888E+01,2.500E+00
3.39E+02,2.399E+04,-3.928E+00,-4.953E+01,2.500E+00
3.40E+02,2.455E+04,-4.047E+00,-5.017E+01,2.500E+00
3.41E+02,2.512E+04,-4.166E+00,-5.080E+01,2.500E+00
3.42E+02,2.570E+04,-4.285E+00,-5.142E+01,2.500E+00
3.43E+02,2.630E+04,-4.413E+00,-5.206E+01,2.500E+00
3.44E+02,2.692E+04,-4.547E+00,-5.272E+01,2.500E+00
3.45E+02,2.754E+04,-4.668E+00,-5.332E+01,2.500E+00
3.46E+02,2.818E+04,-4.792E+00,-5.392E+01,2.500E+00
3.47E+02,2.884E+04,-4.928E+00,-5.456E+01,2.500E+00
3.48E+02,2.951E+04,-5.066E+00,-5.518E+01,2.500E+00
3.49E+02,3.020E+04,-5.193E+00,-5.577E+01,2.500E+00
3.50E+02,3.090E+04,-5.325E+00,-5.636E+01,2.500E+00
3.51E+02,3.162E+04,-5.473E+00,-5.698E+01,2.500E+00
3.52E+02,3.236E+04,-5.616E+00,-5.757E+01,2.500E+00
3.53E+02,3.311E+04,-5.749E+00,-5.813E+01,2.500E+00
3.54E+02,3.388E+04,-5.901E+00,-5.872E+01,2.500E+00
3.55E+02,3.467E+04,-6.056E+00,-5.930E+01,2.500E+00
3.56E+02,3.548E+04,-6.192E+00,-5.986E+01,2.500E+00
3.57E+02,3.631E+04,-6.347E+00,-6.042E+01,2.500E+00
3.58E+02,3.715E+04,-6.504E+00,-6.098E+01,2.500E+00
3.59E+02,3.802E+04,-6.647E+00,-6.152E+01,2.500E+00
3.60E+02,3.890E+04,-6.806E+00,-6.206E+01,2.500E+00
3.61E+02,3.981E+04,-6.969E+00,-6.260E+01,2.500E+00
3.62E+02,4.074E+04,-7.111E+00,-6.311E+01,2.500E+00
3.63E+02,4.169E+04,-7.302E+00,-6.365E+01,2.500E+00
3.64E+02,4.266E+04,-7.461E+00,-6.416E+01,2.500E+00
3.65E+02,4.365E+04,-7.616E+00,-6.464E+01,2.500E+00
3.66E+02,4.467E+04,-7.786E+00,-6.517E+01,2.500E+00
3.67E+02,4.571E+04,-7.938E+00,-6.563E+01,2.500E+00
3.68E+02,4.677E+04,-8.114E+00,-6.614E+01,2.500E+00
3.69E+02,4.786E+04,-8.277E+00,-6.660E+01,2.500E+00
3.70E+02,4.898E+04,-8.452E+00,-6.707E+01,2.500E+00
3.71E+02,5.012E+04,-8.622E+00,-6.753E+01,2.500E+00
3.72E+02,5.129E+04,-8.790E+00,-6.798E+01,2.500E+00
3.73E+02,5.248E+04,-8.969E+00,-6.844E+01,2.500E+00
3.74E+02,5.370E+04,-9.132E+00,-6.886E+01,2.500E+00
3.75E+02,5.495E+04,-9.312E+00,-6.931E+01,2.500E+00
3.76E+02,5.623E+04,-9.478E+00,-6.971E+01,2.500E+00
3.77E+02,5.754E+04,-9.664E+00,-7.015E+01,2.500E+00
3.78E+02,5.888E+04,-9.834E+00,-7.054E+01,2.500E+00
3.79E+02,6.026E+04,-1.002E+01,-7.096E+01,2.500E+00
3.80E+02,6.166E+04,-1.020E+01,-7.135E+01,2.500E+00
3.81E+02,6.310E+04,-1.038E+01,-7.173E+01,2.500E+00
3.82E+02,6.457E+04,-1.055E+01,-7.208E+01,2.500E+00
3.83E+02,6.607E+04,-1.074E+01,-7.249E+01,2.500E+00
3.84E+02,6.761E+04,-1.089E+01,-7.289E+01,2.500E+00
3.85E+02,6.918E+04,-1.106E+01,-7.322E+01,2.500E+00
3.86E+02,7.079E+04,-1.124E+01,-7.354E+01,2.500E+00
3.87E+02,7.244E+04,-1.143E+01,-7.391E+01,2.500E+00
3.88E+02,7.413E+04,-1.162E+01,-7.428E+01,2.500E+00
3.89E+02,7.586E+04,-1.180E+01,-7.458E+01,2.500E+00
3.90E+02,7.762E+04,-1.198E+01,-7.488E+01,2.500E+00
