in Sa,Frequency in Hz,Gain in dB,Phase in °,Amplitude in Vpp
1.00E+00,1.000E+01,-9.229E-02,4.083E-01,2.500E+00
2.00E+00,1.023E+01,-9.136E-02,4.027E-01,2.500E+00
3.00E+00,1.047E+01,-9.028E-02,4.053E-01,2.500E+00
4.00E+00,1.072E+01,-9.220E-02,4.087E-01,2.500E+00
5.00E+00,1.096E+01,-8.918E-02,4.230E-01,2.500E+00
6.00E+00,1.122E+01,-9.030E-02,4.341E-01,2.500E+00
7.00E+00,1.148E+01,-9.050E-02,4.483E-01,2.500E+00
8.00E+00,1.175E+01,-8.776E-02,4.456E-01,2.500E+00
9.00E+00,1.202E+01,-8.795E-02,4.641E-01,2.500E+00
1.00E+01,1.230E+01,-8.733E-02,4.782E-01,2.500E+00
1.10E+01,1.259E+01,-8.629E-02,4.840E-01,2.500E+00
1.20E+01,1.288E+01,-8.476E-02,4.684E-01,2.500E+00
1.30E+01,1.318E+01,-8.409E-02,4.943E-01,2.500E+00
1.40E+01,1.349E+01,-8.385E-02,4.894E-01,2.500E+00
1.50E+01,1.380E+01,-8.118E-02,4.878E-01,2.500E+00
1.60E+01,1.413E+01,-8.015E-02,5.118E-01,2.500E+00
1.70E+01,1.445E+01,-8.123E-02,5.181E-01,2.500E+00
1.80E+01,1.479E+01,-7.926E-02,5.262E-01,2.500E+00
1.90E+01,1.514E+01,-7.887E-02,5.406E-01,2.500E+00
2.00E+01,1.549E+01,-7.786E-02,5.466E-01,2.500E+00
2.10E+01,1.585E+01,-7.730E-02,5.543E-01,2.500E+00
2.20E+01,1.622E+01,-7.700E-02,5.581E-01,2.500E+00
2.30E+01,1.660E+01,-7.416E-02,5.746E-01,2.500E+00
2.40E+01,1.698E+01,-7.371E-02,5.814E-01,2.500E+00
2.50E+01,1.738E+01,-7.232E-02,5.922E-01,2.500E+00
2.60E+01,1.778E+01,-7.201E-02,6.048E-01,2.500E+00
2.70E+01,1.820E+01,-7.243E-02,6.062E-01,2.500E+00
2.80E+01,1.862E+01,-7.058E-02,6.357E-01,2.500E+00
2.90E+01,1.905E+01,-7.010E-02,6.254E-01,2.500E+00
3.00E+01,1.950E+01,-6.917E-02,6.411E-01,2.500E+00
3.10E+01,1.995E+01,-6.746E-02,6.522E-01,2.500E+00
3.20E+01,2.042E+01,-6.654E-02,6.610E-01,2.500E+00
3.30E+01,2.089E+01,-6.425E-02,6.762E-01,2.500E+00
3.40E+01,2.138E+01,-6.334E-02,6.966E-01,2.500E+00
3.50E+01,2.188E+01,-6.475E-02,7.091E-01,2.500E+00
3.60E+01,2.239E+01,-6.340E-02,7.203E-01,2.500E+00
3.70E+01,2.291E+01,-5.946E-02,7.203E-01,2.500E+00
3.80E+01,2.344E+01,-6.399E-02,7.495E-01,2.500E+00
3.90E+01,2.399E+01,-5.807E-02,7.503E-01,2.500E+00
4.00E+01,2.455E+01,-5.890E-02,7.636E-01,2.500E+00
4.10E+01,2.512E+01,-5.619E-02,7.762E-01,2.500E+00
4.20E+01,2.570E+01,-5.691E-02,7.874E-01,2.500E+00
4.30E+01,2.630E+01,-5.091E-02,8.043E-01,2.500E+00
4.40E+01,2.692E+01,-5.237E-02,8.252E-01,2.500E+00
4.50E+01,2.754E+01,-4.863E-02,8.409E-01,2.500E+00
4.60E+01,2.818E+01,-5.058E-02,8.658E-01,2.500E+00
4.70E+01,2.884E+01,-4.993E-02,8.681E-01,2.500E+00
4.80E+01,2.951E+01,-4.332E-02,8.889E-01,2.500E+00
4.90E+01,3.020E+01,-7.124E-02,9.533E-01,2.500E+00
5.00E+01,3.090E+01,-6.816E-02,9.667E-01,2.500E+00
5.10E+01,3.162E+01,-6.457E-02,9.946E-01,2.500E+00
5.20E+01,3.236E+01,-6.531E-02,1.006E+00,2.500E+00
5.30E+01,3.311E+01,-6.227E-02,1.047E+00,2.500E+00
5.40E+01,3.388E+01,-6.083E-02,1.062E+00,2.500E+00
5.50E+01,3.467E+01,-5.915E-02,1.079E+00,2.500E+00
5.60E+01,3.548E+01,-5.729E-02,1.109E+00,2.500E+00
5.70E+01,3.631E+01,-5.524E-02,1.134E+00,2.500E+00
5.80E+01,3.715E+01,-5.197E-02,1.165E+00,2.500E+00
5.90E+01,3.802E+01,-5.012E-02,1.184E+00,2.500E+00
6.00E+01,3.890E+01,-4.710E-02,1.219E+00,2.500E+00
6.10E+01,3.981E+01,-4.309E-02,1.240E+00,2.500E+00
6.20E+01,4.074E+01,-4.024E-02,1.278E+00,2.500E+00
6.30E+01,4.169E+01,-3.750E-02,1.298E+00,2.500E+00
6.40E+01,4.266E+01,-3.495E-02,1.329E+00,2.500E+00
6.50E+01,4.365E+01,-3.146E-02,1.351E+00,2.500E+00
6.60E+01,4.467E+01,-2.727E-02,1.387E+00,2.500E+00
6.70E+01,4.571E+01,-2.280E-02,1.421E+00,2.500E+00
6.80E+01,4.677E+01,-2.168E-02,1.444E+00,2.500E+00
6.90E+01,4.786E+01,-1.481E-02,1.488E+00,2.500E+00
7.00E+01,4.898E+01,-9.961E-03,1.518E+00,2.500E+00
7.10E+01,5.012E+01,-5.073E-03,1.546E+00,2.500E+00
7.20E+01,5.129E+01,7.786E-04,1.586E+00,2.500E+00
7.30E+01,5.248E+01,3.344E-03,1.605E+00,2.500E+00
7.40E+01,5.370E+01,8.341E-03,1.644E+00,2.500E+00
7.50E+01,5.495E+01,1.324E-02,1.678E+00,2.500E+00
7.60E+01,5.623E+01,2.142E-02,1.710E+00,2.500E+00
7.70E+01,5.754E+01,2.548E-02,1.753E+00,2.500E+00
7.80E+01,5.888E+01,3.289E-02,1.793E+00,2.500E+00
7.90E+01,6.026E+01,4.037E-02,1.826E+00,2.500E+00
8.00E+01,6.166E+01,4.391E-02,1.863E+00,2.500E+00
8.10E+01,6.310E+01,5.193E-02,1.907E+00,2.500E+00
8.20E+01,6.457E+01,6.208E-02,1.933E+00,2.500E+00
8.30E+01,6.607E+01,6.767E-02,1.984E+00,2.500E+00
8.40E+01,6.761E+01,7.650E-02,2.010E+00,2.500E+00
8.50E+01,6.918E+01,8.487E-02,2.058E+00,2.500E+00
8.60E+01,7.079E+01,9.492E-02,2.093E+00,2.500E+00
8.70E+01,7.244E+01,1.023E-01,2.146E+00,2.500E+00
8.80E+01,7.413E+01,1.155E-01,2.187E+00,2.500E+00
8.90E+01,7.586E+01,1.245E-01,2.228E+00,2.500E+00
9.00E+01,7.762E+01,1.350E-01,2.278E+00,2.500E+00
9.10E+01,7.943E+01,1.459E-01,2.308E+00,2.500E+00
9.20E+01,8.128E+01,1.603E-01,2.357E+00,2.500E+00
9.30E+01,8.318E+01,1.725E-01,2.396E+00,2.500E+00
9.40E+01,8.511E+01,1.820E-01,2.429E+00,2.500E+00
9.50E+01,8.710E+01,1.978E-01,2.486E+00,2.500E+00
9.60E+01,8.913E+01,2.099E-01,2.521E+00,2.500E+00
9.70E+01,9.120E+01,2.248E-01,2.582E+00,2.500E+00
9.80E+01,9.333E+01,2.429E-01,2.619E+00,2.500E+00
9.90E+01,9.550E+01,2.576E-01,2.669E+00,2.500E+00
1.00E+02,9.772E+01,2.752E-01,2.708E+00,2.500E+00
1.01E+02,1.000E+02,2.939E-01,2.757E+00,2.500E+00
1.02E+02,1.023E+02,3.125E-01,2.797E+00,2.500E+00
1.03E+02,1.047E+02,3.309E-01,2.846E+00,2.500E+00
1.04E+02,1.072E+02,3.517E-01,2.889E+00,2.500E+00
1.05E+02,1.096E+02,3.716E-01,2.916E+00,2.500E+00
1.06E+02,1.122E+02,3.936E-01,2.955E+00,2.500E+00
1.07E+02,1.148E+02,4.193E-01,3.004E+00,2.500E+00
1.08E+02,1.175E+02,4.416E-01,3.032E+00,2.500E+00
1.09E+02,1.202E+02,4.655E-01,3.086E+00,2.500E+00
1.10E+02,1.230E+02,4.947E-01,3.117E+00,2.500E+00
1.11E+02,1.259E+02,5.212E-01,3.154E+00,2.500E+00
1.12E+02,1.288E+02,5.523E-01,3.181E+00,2.500E+00
1.13E+02,1.318E+02,5.774E-01,3.207E+00,2.500E+00
1.14E+02,1.349E+02,6.144E-01,3.237E+00,2.500E+00
1.15E+02,1.380E+02,6.468E-01,3.263E+00,2.500E+00
1.16E+02,1.413E+02,6.817E-01,3.284E+00,2.500E+00
1.17E+02,1.445E+02,7.168E-01,3.307E+00,2.500E+00
1.18E+02,1.479E+02,7.532E-01,3.309E+00,2.500E+00
1.19E+02,1.514E+02,7.938E-01,3.322E+00,2.500E+00
1.20E+02,1.549E+02,8.346E-01,3.339E+00,2.500E+00
1.21E+02,1.585E+02,8.783E-01,3.340E+00,2.500E+00
1.22E+02,1.622E+02,9.236E-01,3.338E+00,2.500E+00
1.23E+02,1.660E+02,9.692E-01,3.326E+00,2.500E+00
1.24E+02,1.698E+02,1.016E+00,3.312E+00,2.500E+00
1.25E+02,1.738E+02,1.070E+00,3.286E+00,2.500E+00
1.26E+02,1.778E+02,1.120E+00,3.251E+00,2.500E+00
1.27E+02,1.820E+02,1.178E+00,3.205E+00,2.500E+00
1.28E+02,1.862E+02,1.237E+00,3.159E+00,2.500E+00
1.29E+02,1.905E+02,1.297E+00,3.099E+00,2.500E+00
1.30E+02,1.950E+02,1.363E+00,3.030E+00,2.500E+00
1.31E+02,1.995E+02,1.426E+00,2.949E+00,2.500E+00
1.32E+02,2.042E+02,1.513E+00,2.847E+00,2.500E+00
1.33E+02,2.089E+02,1.583E+00,2.732E+00,2.500E+00
1.34E+02,2.138E+02,1.658E+00,2.597E+00,2.500E+00
1.35E+02,2.188E+02,1.737E+00,2.456E+00,2.500E+00
1.36E+02,2.239E+02,1.819E+00,2.293E+00,2.500E+00
1.37E+02,2.291E+02,1.902E+00,2.118E+00,2.500E+00
1.38E+02,2.344E+02,1.990E+00,1.918E+00,2.500E+00
1.39E+02,2.399E+02,2.082E+00,1.686E+00,2.500E+00
1.40E+02,2.455E+02,2.175E+00,1.432E+00,2.500E+00
1.41E+02,2.512E+02,2.276E+00,1.146E+00,2.500E+00
1.42E+02,2.570E+02,2.376E+00,8.409E-01,2.500E+00
1.43E+02,2.630E+02,2.481E+00,4.968E-01,2.500E+00
1.44E+02,2.692E+02,2.593E+00,1.138E-01,2.500E+00
1.45E+02,2.754E+02,2.705E+00,-3.009E-01,2.500E+00
1.46E+02,2.818E+02,2.825E+00,-7.559E-01,2.500E+00
1.47E+02,2.884E+02,2.945E+00,-1.267E+00,2.500E+00
1.48E+02,2.951E+02,3.073E+00,-1.825E+00,2.500E+00
1.49E+02,3.020E+02,3.152E+00,-2.444E+00,2.500E+00
1.50E+02,3.090E+02,3.284E+00,-3.109E+00,2.500E+00
1.51E+02,3.162E+02,3.421E+00,-3.849E+00,2.500E+00
1.52E+02,3.236E+02,3.561E+00,-4.648E+00,2.500E+00
1.53E+02,3.311E+02,3.701E+00,-5.525E+00,2.500E+00
1.54E+02,3.388E+02,3.848E+00,-6.470E+00,2.500E+00
1.55E+02,3.467E+02,3.995E+00,-7.519E+00,2.500E+00
1.56E+02,3.548E+02,4.144E+00,-8.649E+00,2.500E+00
1.57E+02,3.631E+02,4.290E+00,-9.881E+00,2.500E+00
1.58E+02,3.715E+02,4.437E+00,-1.121E+01,2.500E+00
1.59E+02,3.802E+02,4.581E+00,-1.267E+01,2.500E+00
1.60E+02,3.890E+02,4.719E+00,-1.422E+01,2.500E+00
1.61E+02,3.981E+02,4.858E+00,-1.590E+01,2.500E+00
1.62E+02,4.074E+02,4.984E+00,-1.769E+01,2.500E+00
1.63E+02,4.169E+02,5.109E+00,-1.959E+01,2.500E+00
1.64E+02,4.266E+02,5.218E+00,-2.162E+01,2.500E+00
1.65E+02,4.365E+02,5.314E+00,-2.376E+01,2.500E+00
1.66E+02,4.467E+02,5.392E+00,-2.600E+01,2.500E+00
1.67E+02,4.571E+02,5.451E+00,-2.833E+01,2.500E+00
1.68E+02,4.677E+02,5.488E+00,-3.077E+01,2.500E+00
1.69E+02,4.786E+02,5.502E+00,-3.329E+01,2.500E+00
1.70E+02,4.898E+02,5.493E+00,-3.590E+01,2.500E+00
1.71E+02,5.012E+02,5.455E+00,-3.854E+01,2.500E+00
1.72E+02,5.129E+02,5.392E+00,-4.119E+01,2.500E+00
1.73E+02,5.248E+02,5.303E+00,-4.383E+01,2.500E+00
1.74E+02,5.370E+02,5.185E+00,-4.643E+01,2.500E+00
1.75E+02,5.495E+02,5.043E+00,-4.900E+01,2.500E+00
1.76E+02,5.623E+02,4.877E+00,-5.152E+01,2.500E+00
1.77E+02,5.754E+02,4.686E+00,-5.399E+01,2.500E+00
1.78E+02,5.888E+02,4.480E+00,-5.636E+01,2.500E+00
1.79E+02,6.026E+02,4.249E+00,-5.865E+01,2.500E+00
1.80E+02,6.166E+02,4.003E+00,-6.083E+01,2.500E+00
1.81E+02,6.310E+02,3.743E+00,-6.290E+01,2.500E+00
1.82E+02,6.457E+02,3.466E+00,-6.490E+01,2.500E+00
1.83E+02,6.607E+02,3.182E+00,-6.677E+01,2.500E+00
1.84E+02,6.761E+02,2.893E+00,-6.853E+01,2.500E+00
1.85E+02,6.918E+02,2.594E+00,-7.015E+01,2.500E+00
1.86E+02,7.079E+02,2.286E+00,-7.168E+01,2.500E+00
1.87E+02,7.244E+02,1.969E+00,-7.313E+01,2.500E+00
1.88E+02,7.413E+02,1.644E+00,-7.450E+01,2.500E+00
1.89E+02,7.586E+02,1.318E+00,-7.578E+01,2.500E+00
1.90E+02,7.762E+02,1.020E+00,-7.695E+01,2.500E+00
1.91E+02,7.943E+02,6.982E-01,-7.805E+01,2.500E+00
1.92E+02,8.128E+02,3.757E-01,-7.907E+01,2.500E+00
1.93E+02,8.318E+02,6.414E-02,-7.999E+01,2.500E+00
1.94E+02,8.511E+02,-2.410E-01,-8.084E+01,2.500E+00
1.95E+02,8.710E+02,-5.481E-01,-8.162E+01,2.500E+00
1.96E+02,8.913E+02,-8.589E-01,-8.236E+01,2.500E+00
1.97E+02,9.120E+02,-1.168E+00,-8.304E+01,2.500E+00
1.98E+02,9.333E+02,-1.482E+00,-8.365E+01,2.500E+00
1.99E+02,9.550E+02,-1.793E+00,-8.426E+01,2.500E+00
2.00E+02,9.772E+02,-2.102E+00,-8.482E+01,2.500E+00
2.01E+02,1.000E+03,-2.412E+00,-8.541E+01,2.500E+00
2.02E+02,1.023E+03,-2.698E+00,-8.582E+01,2.500E+00
2.03E+02,1.047E+03,-2.988E+00,-8.620E+01,2.500E+00
2.04E+02,1.072E+03,-3.282E+00,-8.659E+01,2.500E+00
2.05E+02,1.096E+03,-3.574E+00,-8.699E+01,2.500E+00
2.06E+02,1.122E+03,-3.860E+00,-8.736E+01,2.500E+00
2.07E+02,1.148E+03,-4.145E+00,-8.773E+01,2.500E+00
2.08E+02,1.175E+03,-4.421E+00,-8.806E+01,2.500E+00
2.09E+02,1.202E+03,-4.691E+00,-8.835E+01,2.500E+00
2.10E+02,1.230E+03,-4.965E+00,-8.854E+01,2.500E+00
2.11E+02,1.259E+03,-5.246E+00,-8.872E+01,2.500E+00
2.12E+02,1.288E+03,-5.526E+00,-8.891E+01,2.500E+00
2.13E+02,1.318E+03,-5.799E+00,-8.907E+01,2.500E+00
2.14E+02,1.349E+03,-6.062E+00,-8.924E+01,2.500E+00
2.15E+02,1.380E+03,-6.323E+00,-8.942E+01,2.500E+00
2.16E+02,1.413E+03,-6.565E+00,-8.953E+01,2.500E+00
2.17E+02,1.445E+03,-6.822E+00,-8.961E+01,2.500E+00
2.18E+02,1.479E+03,-7.083E+00,-8.975E+01,2.500E+00
2.19E+02,1.514E+03,-7.339E+00,-8.991E+01,2.500E+00
2.20E+02,1.549E+03,-7.590E+00,-9.007E+01,2.500E+00
2.21E+02,1.585E+03,-7.835E+00,-9.021E+01,2.500E+00
2.22E+02,1.622E+03,-8.077E+00,-9.023E+01,2.500E+00
2.23E+02,1.660E+03,-8.333E+00,-9.019E+01,2.500E+00
2.24E+02,1.698E+03,-8.576E+00,-9.022E+01,2.500E+00
2.25E+02,1.738E+03,-8.813E+00,-9.032E+01,2.500E+00
2.26E+02,1.778E+03,-9.040E+00,-9.043E+01,2.500E+00
2.27E+02,1.820E+03,-9.264E+00,-9.047E+01,2.500E+00
2.28E+02,1.862E+03,-9.506E+00,-9.047E+01,2.500E+00
2.29E+02,1.905E+03,-9.754E+00,-9.055E+01,2.500E+00
2.30E+02,1.950E+03,-9.942E+00,-9.063E+01,2.500E+00
2.31E+02,1.995E+03,-1.017E+01,-9.063E+01,2.500E+00
2.32E+02,2.042E+03,-1.039E+01,-9.059E+01,2.500E+00
2.33E+02,2.089E+03,-1.061E+01,-9.060E+01,2.500E+00
2.34E+02,2.138E+03,-1.083E+01,-9.057E+01,2.500E+00
2.35E+02,2.188E+03,-1.106E+01,-9.058E+01,2.500E+00
2.36E+02,2.239E+03,-1.129E+01,-9.064E+01,2.500E+00
2.37E+02,2.291E+03,-1.152E+01,-9.069E+01,2.500E+00
2.38E+02,2.344E+03,-1.175E+01,-9.075E+01,2.500E+00
2.39E+02,2.399E+03,-1.196E+01,-9.080E+01,2.500E+00
2.40E+02,2.455E+03,-1.218E+01,-9.080E+01,2.500E+00
2.41E+02,2.512E+03,-1.240E+01,-9.071E+01,2.500E+00
2.42E+02,2.570E+03,-1.263E+01,-9.061E+01,2.500E+00
2.43E+02,2.630E+03,-1.285E+01,-9.057E+01,2.500E+00
2.44E+02,2.692E+03,-1.307E+01,-9.059E+01,2.500E+00
2.45E+02,2.754E+03,-1.327E+01,-9.064E+01,2.500E+00
2.46E+02,2.818E+03,-1.348E+01,-9.070E+01,2.500E+00
2.47E+02,2.884E+03,-1.368E+01,-9.068E+01,2.500E+00
2.48E+02,2.951E+03,-1.389E+01,-9.063E+01,2.500E+00
2.49E+02,3.020E+03,-1.412E+01,-9.063E+01,2.500E+00
2.50E+02,3.090E+03,-1.434E+01,-9.066E+01,2.500E+00
2.51E+02,3.162E+03,-1.456E+01,-9.067E+01,2.500E+00
2.52E+02,3.236E+03,-1.476E+01,-9.064E+01,2.500E+00
2.53E+02,3.311E+03,-1.496E+01,-9.055E+01,2.500E+00
2.54E+02,3.388E+03,-1.517E+01,-9.047E+01,2.500E+00
2.55E+02,3.467E+03,-1.538E+01,-9.050E+01,2.500E+00
2.56E+02,3.548E+03,-1.560E+01,-9.056E+01,2.500E+00
2.57E+02,3.631E+03,-1.580E+01,-9.063E+01,2.500E+00
2.58E+02,3.715E+03,-1.601E+01,-9.059E+01,2.500E+00
2.59E+02,3.802E+03,-1.623E+01,-9.049E+01,2.500E+00
2.60E+02,3.890E+03,-1.645E+01,-9.044E+01,2.500E+00
2.61E+02,3.981E+03,-1.665E+01,-9.045E+01,2.500E+00
2.62E+02,4.074E+03,-1.684E+01,-9.046E+01,2.500E+00
2.63E+02,4.169E+03,-1.706E+01,-9.048E+01,2.500E+00
2.64E+02,4.266E+03,-1.725E+01,-9.038E+01,2.500E+00
2.65E+02,4.365E+03,-1.745E+01,-9.032E+01,2.500E+00
2.66E+02,4.467E+03,-1.766E+01,-9.032E+01,2.500E+00
2.67E+02,4.571E+03,-1.787E+01,-9.037E+01,2.500E+00
2.68E+02,4.677E+03,-1.808E+01,-9.040E+01,2.500E+00
2.69E+02,4.786E+03,-1.829E+01,-9.044E+01,2.500E+00
2.70E+02,4.898E+03,-1.849E+01,-9.044E+01,2.500E+00
2.71E+02,5.012E+03,-1.869E+01,-9.035E+01,2.500E+00
2.72E+02,5.129E+03,-1.889E+01,-9.025E+01,2.500E+00
2.73E+02,5.248E+03,-1.909E+01,-9.021E+01,2.500E+00
2.74E+02,5.370E+03,-1.930E+01,-9.024E+01,2.500E+00
2.75E+02,5.495E+03,-1.951E+01,-9.030E+01,2.500E+00
2.76E+02,5.623E+03,-1.972E+01,-9.035E+01,2.500E+00
2.77E+02,5.754E+03,-1.992E+01,-9.034E+01,2.500E+00
2.78E+02,5.888E+03,-2.012E+01,-9.024E+01,2.500E+00
2.79E+02,6.026E+03,-2.031E+01,-9.014E+01,2.500E+00
2.80E+02,6.166E+03,-2.052E+01,-9.016E+01,2.500E+00
2.81E+02,6.310E+03,-2.072E+01,-9.020E+01,2.500E+00
2.82E+02,6.457E+03,-2.094E+01,-9.025E+01,2.500E+00
2.83E+02,6.607E+03,-2.112E+01,-9.025E+01,2.500E+00
2.84E+02,6.761E+03,-2.131E+01,-9.015E+01,2.500E+00
2.85E+02,6.918E+03,-2.151E+01,-9.006E+01,2.500E+00
2.86E+02,7.079E+03,-2.172E+01,-9.011E+01,2.500E+00
2.87E+02,7.244E+03,-2.193E+01,-9.018E+01,2.500E+00
2.88E+02,7.413E+03,-2.213E+01,-9.020E+01,2.500E+00
2.89E+02,7.586E+03,-2.232E+01,-9.010E+01,2.500E+00
2.90E+02,7.762E+03,-2.253E+01,-9.003E+01,2.500E+00
2.91E+02,7.943E+03,-2.273E+01,-9.008E+01,2.500E+00
2.92E+02,8.128E+03,-2.294E+01,-9.014E+01,2.500E+00
2.93E+02,8.318E+03,-2.314E+01,-9.014E+01,2.500E+00
2.94E+02,8.511E+03,-2.333E+01,-9.006E+01,2.500E+00
2.95E+02,8.710E+03,-2.352E+01,-9.002E+01,2.500E+00
2.96E+02,8.913E+03,-2.372E+01,-8.996E+01,2.500E+00
2.97E+02,9.120E+03,-2.393E+01,-8.998E+01,2.500E+00
2.98E+02,9.333E+03,-2.414E+01,-9.002E+01,2.500E+00
2.99E+02,9.550E+03,-2.435E+01,-9.007E+01,2.500E+00
3.00E+02,9.772E+03,-2.456E+01,-9.010E+01,2.500E+00
3.01E+02,1.000E+04,-2.474E+01,-9.000E+01,2.500E+00
3.02E+02,1.023E+04,-2.492E+01,-8.992E+01,2.500E+00
3.03E+02,1.047E+04,-2.513E+01,-8.996E+01,2.500E+00
3.04E+02,1.072E+04,-2.533E+01,-9.001E+01,2.500E+00
3.05E+02,1.096E+04,-2.553E+01,-8.997E+01,2.500E+00
3.06E+02,1.122E+04,-2.572E+01,-8.990E+01,2.500E+00
3.07E+02,1.148E+04,-2.593E+01,-8.994E+01,2.500E+00
3.08E+02,1.175E+04,-2.614E+01,-8.998E+01,2.500E+00
3.09E+02,1.202E+04,-2.633E+01,-8.992E+01,2.500E+00
3.10E+02,1.230E+04,-2.653E+01,-8.986E+01,2.500E+00
3.11E+02,1.259E+04,-2.673E+01,-8.994E+01,2.500E+00
3.12E+02,1.288E+04,-2.694E+01,-8.993E+01,2.500E+00
3.13E+02,1.318E+04,-2.712E+01,-8.986E+01,2.500E+00
3.14E+02,1.349E+04,-2.733E+01,-8.988E+01,2.500E+00
3.15E+02,1.380E+04,-2.754E+01,-8.992E+01,2.500E+00
3.16E+02,1.413E+04,-2.772E+01,-8.984E+01,2.500E+00
3.17E+02,1.445E+04,-2.793E+01,-8.985E+01,2.500E+00
3.18E+02,1.479E+04,-2.814E+01,-8.989E+01,2.500E+00
3.19E+02,1.514E+04,-2.832E+01,-8.983E+01,2.500E+00
3.20E+02,1.549E+04,-2.853E+01,-8.983E+01,2.500E+00
3.21E+02,1.585E+04,-2.869E+01,-8.986E+01,2.500E+00
3.22E+02,1.622E+04,-2.888E+01,-8.980E+01,2.500E+00
3.23E+02,1.660E+04,-2.914E+01,-8.986E+01,2.500E+00
3.24E+02,1.698E+04,-2.933E+01,-8.984E+01,2.500E+00
3.25E+02,1.738E+04,-2.953E+01,-8.980E+01,2.500E+00
3.26E+02,1.778E+04,-2.974E+01,-8.984E+01,2.500E+00
3.27E+02,1.820E+04,-2.992E+01,-8.979E+01,2.500E+00
3.28E+02,1.862E+04,-3.013E+01,-8.983E+01,2.500E+00
3.29E+02,1.905E+04,-3.032E+01,-8.980E+01,2.500E+00
3.30E+02,1.950E+04,-3.052E+01,-8.979E+01,2.500E+00
3.31E+02,1.995E+04,-3.072E+01,-8.980E+01,2.500E+00
3.32E+02,2.042E+04,-3.091E+01,-8.977E+01,2.500E+00
3.33E+02,2.089E+04,-3.111E+01,-8.980E+01,2.500E+00
3.34E+02,2.138E+04,-3.128E+01,-8.978E+01,2.500E+00
3.35E+02,2.188E+04,-3.149E+01,-8.979E+01,2.500E+00
3.36E+02,2.239E+04,-3.168E+01,-8.978E+01,2.500E+00
3.37E+02,2.291E+04,-3.188E+01,-8.980E+01,2.500E+00
3.38E+02,2.344E+04,-3.207E+01,-8.977E+01,2.500E+00
3.39E+02,2.399E+04,-3.227E+01,-8.978E+01,2.500E+00
3.40E+02,2.455E+04,-3.247E+01,-8.980E+01,2.500E+00
3.41E+02,2.512E+04,-3.266E+01,-8.976E+01,2.500E+00
3.42E+02,2.570E+04,-3.285E+01,-8.974E+01,2.500E+00
3.43E+02,2.630E+04,-3.306E+01,-8.980E+01,2.500E+00
3.44E+02,2.692E+04,-3.326E+01,-8.985E+01,2.500E+00
3.45E+02,2.754E+04,-3.346E+01,-8.982E+01,2.500E+00
3.46E+02,2.818E+04,-3.364E+01,-8.969E+01,2.500E+00
3.47E+02,2.884E+04,-3.384E+01,-8.978E+01,2.500E+00
3.48E+02,2.951E+04,-3.405E+01,-8.984E+01,2.500E+00
3.49E+02,3.020E+04,-3.423E+01,-8.978E+01,2.500E+00
3.50E+02,3.090E+04,-3.442E+01,-8.979E+01,2.500E+00
3.51E+02,3.162E+04,-3.463E+01,-8.983E+01,2.500E+00
3.52E+02,3.236E+04,-3.482E+01,-8.987E+01,2.500E+00
3.53E+02,3.311E+04,-3.500E+01,-8.978E+01,2.500E+00
3.54E+02,3.388E+04,-3.520E+01,-8.985E+01,2.500E+00
3.55E+02,3.467E+04,-3.540E+01,-8.988E+01,2.500E+00
3.56E+02,3.548E+04,-3.557E+01,-8.986E+01,2.500E+00
3.57E+02,3.631E+04,-3.576E+01,-8.988E+01,2.500E+00
3.58E+02,3.715E+04,-3.597E+01,-8.993E+01,2.500E+00
3.59E+02,3.802E+04,-3.615E+01,-8.989E+01,2.500E+00
3.60E+02,3.890E+04,-3.634E+01,-8.994E+01,2.500E+00
3.61E+02,3.981E+04,-3.654E+01,-8.999E+01,2.500E+00
3.62E+02,4.074E+04,-3.671E+01,-8.996E+01,2.500E+00
3.63E+02,4.169E+04,-3.691E+01,-9.004E+01,2.500E+00
3.64E+02,4.266E+04,-3.709E+01,-9.007E+01,2.500E+00
3.65E+02,4.365E+04,-3.728E+01,-9.005E+01,2.500E+00
3.66E+02,4.467E+04,-3.748E+01,-9.013E+01,2.500E+00
3.67E+02,4.571E+04,-3.765E+01,-9.010E+01,2.500E+00
3.68E+02,4.677E+04,-3.784E+01,-9.024E+01,2.500E+00
3.69E+02,4.786E+04,-3.802E+01,-9.019E+01,2.500E+00
3.70E+02,4.898E+04,-3.821E+01,-9.024E+01,2.500E+00
3.71E+02,5.012E+04,-3.840E+01,-9.032E+01,2.500E+00
3.72E+02,5.129E+04,-3.858E+01,-9.037E+01,2.500E+00
3.73E+02,5.248E+04,-3.877E+01,-9.047E+01,2.500E+00
3.74E+02,5.370E+04,-3.893E+01,-9.050E+01,2.500E+00
3.75E+02,5.495E+04,-3.913E+01,-9.060E+01,2.500E+00
3.76E+02,5.623E+04,-3.930E+01,-9.061E+01,2.500E+00
3.77E+02,5.754E+04,-3.949E+01,-9.072E+01,2.500E+00
3.78E+02,5.888E+04,-3.967E+01,-9.082E+01,2.500E+00
3.79E+02,6.026E+04,-3.985E+01,-9.090E+01,2.500E+00
3.80E+02,6.166E+04,-4.003E+01,-9.101E+01,2.500E+00
3.81E+02,6.310E+04,-4.021E+01,-9.115E+01,2.500E+00
3.82E+02,6.457E+04,-4.036E+01,-9.121E+01,2.500E+00
3.83E+02,6.607E+04,-4.056E+01,-9.141E+01,2.500E+00
3.84E+02,6.761E+04,-4.074E+01,-9.154E+01,2.500E+00
3.85E+02,6.918E+04,-4.090E+01,-9.165E+01,2.500E+00
3.86E+02,7.079E+04,-4.106E+01,-9.177E+01,2.500E+00
3.87E+02,7.244E+04,-4.124E+01,-9.200E+01,2.500E+00
3.88E+02,7.413E+04,-4.142E+01,-9.216E+01,2.500E+00
3.89E+02,7.586E+04,-4.158E+01,-9.231E+01,2.500E+00
3.90E+02,7.762E+04,-4.174E+01,-9.252E+01,2.500E+00
3.91E+02,7.943E+04,-4.193E+01,-9.277E+01,2.500E+00
3.92E+02,8.128E+04,-4.209E+01,-9.304E+01,2.500E+00
3.93E+02,8.318E+04,-4.222E+01,-9.319E+01,2.500E+00
3.94E+02,8.511E+04,-4.240E+01,-9.348E+01,2.500E+00
3.95E+02,8.710E+04,-4.258E+01,-9.378E+01,2.500E+00
3.96E+02,8.913E+04,-4.271E+01,-9.408E+01,2.500E+00
