in Sa,Frequency in Hz,Gain in dB,Phase in °,Amplitude in Vpp
1.00E+00,1.000E+01,-4.330E-02,-6.645E-01,2.500E+00
2.00E+00,1.023E+01,-4.338E-02,-7.351E-01,2.500E+00
3.00E+00,1.047E+01,-4.492E-02,-7.800E-01,2.500E+00
4.00E+00,1.072E+01,-4.602E-02,-8.205E-01,2.500E+00
5.00E+00,1.096E+01,-4.491E-02,-8.610E-01,2.500E+00
6.00E+00,1.122E+01,-4.836E-02,-8.733E-01,2.500E+00
7.00E+00,1.148E+01,-5.043E-02,-8.904E-01,2.500E+00
8.00E+00,1.175E+01,-4.742E-02,-9.105E-01,2.500E+00
9.00E+00,1.202E+01,-4.765E-02,-9.418E-01,2.500E+00
1.00E+01,1.230E+01,-4.958E-02,-9.570E-01,2.500E+00
1.10E+01,1.259E+01,-5.099E-02,-9.692E-01,2.500E+00
1.20E+01,1.288E+01,-4.793E-02,-1.014E+00,2.500E+00
1.30E+01,1.318E+01,-5.018E-02,-1.016E+00,2.500E+00
1.40E+01,1.349E+01,-4.701E-02,-1.054E+00,2.500E+00
1.50E+01,1.380E+01,-4.907E-02,-1.068E+00,2.500E+00
1.60E+01,1.413E+01,-5.027E-02,-1.094E+00,2.500E+00
1.70E+01,1.445E+01,-5.077E-02,-1.130E+00,2.500E+00
1.80E+01,1.479E+01,-4.982E-02,-1.135E+00,2.500E+00
1.90E+01,1.514E+01,-4.909E-02,-1.161E+00,2.500E+00
2.00E+01,1.549E+01,-4.917E-02,-1.203E+00,2.500E+00
2.10E+01,1.585E+01,-5.074E-02,-1.229E+00,2.500E+00
2.20E+01,1.622E+01,-5.043E-02,-1.252E+00,2.500E+00
2.30E+01,1.660E+01,-5.152E-02,-1.267E+00,2.500E+00
2.40E+01,1.698E+01,-5.100E-02,-1.316E+00,2.500E+00
2.50E+01,1.738E+01,-5.180E-02,-1.335E+00,2.500E+00
2.60E+01,1.778E+01,-5.156E-02,-1.365E+00,2.500E+00
2.70E+01,1.820E+01,-5.299E-02,-1.397E+00,2.500E+00
2.80E+01,1.862E+01,-5.334E-02,-1.414E+00,2.500E+00
2.90E+01,1.905E+01,-5.340E-02,-1.470E+00,2.500E+00
3.00E+01,1.950E+01,-5.397E-02,-1.485E+00,2.500E+00
3.10E+01,1.995E+01,-5.443E-02,-1.521E+00,2.500E+00
3.20E+01,2.042E+01,-5.244E-02,-1.540E+00,2.500E+00
3.30E+01,2.089E+01,-5.469E-02,-1.594E+00,2.500E+00
3.40E+01,2.138E+01,-5.511E-02,-1.628E+00,2.500E+00
3.50E+01,2.188E+01,-5.788E-02,-1.653E+00,2.500E+00
3.60E+01,2.239E+01,-5.604E-02,-1.690E+00,2.500E+00
3.70E+01,2.291E+01,-5.877E-02,-1.731E+00,2.500E+00
3.80E+01,2.344E+01,-5.358E-02,-1.766E+00,2.500E+00
3.90E+01,2.399E+01,-5.690E-02,-1.816E+00,2.500E+00
4.00E+01,2.455E+01,-5.621E-02,-1.847E+00,2.500E+00
4.10E+01,2.512E+01,-6.124E-02,-1.886E+00,2.500E+00
4.20E+01,2.570E+01,-5.559E-02,-1.940E+00,2.500E+00
4.30E+01,2.630E+01,-5.637E-02,-1.973E+00,2.500E+00
4.40E+01,2.692E+01,-5.653E-02,-2.017E+00,2.500E+00
4.50E+01,2.754E+01,-6.049E-02,-2.048E+00,2.500E+00
4.60E+01,2.818E+01,-5.724E-02,-2.124E+00,2.500E+00
4.70E+01,2.884E+01,-5.471E-02,-2.156E+00,2.500E+00
4.80E+01,2.951E+01,-6.051E-02,-2.199E+00,2.500E+00
4.90E+01,3.020E+01,-2.895E-03,-2.526E+00,2.500E+00
5.00E+01,3.090E+01,-5.540E-04,-2.589E+00,2.500E+00
5.10E+01,3.162E+01,1.423E-03,-2.644E+00,2.500E+00
5.20E+01,3.236E+01,7.538E-04,-2.705E+00,2.500E+00
5.30E+01,3.311E+01,2.575E-03,-2.773E+00,2.500E+00
5.40E+01,3.388E+01,3.464E-03,-2.842E+00,2.500E+00
5.50E+01,3.467E+01,3.230E-03,-2.886E+00,2.500E+00
5.60E+01,3.548E+01,4.665E-03,-2.976E+00,2.500E+00
5.70E+01,3.631E+01,9.272E-03,-3.052E+00,2.500E+00
5.80E+01,3.715E+01,6.561E-03,-3.117E+00,2.500E+00
5.90E+01,3.802E+01,8.399E-03,-3.183E+00,2.500E+00
6.00E+01,3.890E+01,1.296E-02,-3.256E+00,2.500E+00
6.10E+01,3.981E+01,1.458E-02,-3.344E+00,2.500E+00
6.20E+01,4.074E+01,1.346E-02,-3.400E+00,2.500E+00
6.30E+01,4.169E+01,1.810E-02,-3.482E+00,2.500E+00
6.40E+01,4.266E+01,1.862E-02,-3.578E+00,2.500E+00
6.50E+01,4.365E+01,2.138E-02,-3.650E+00,2.500E+00
6.60E+01,4.467E+01,2.411E-02,-3.742E+00,2.500E+00
6.70E+01,4.571E+01,2.231E-02,-3.827E+00,2.500E+00
6.80E+01,4.677E+01,2.510E-02,-3.917E+00,2.500E+00
6.90E+01,4.786E+01,2.846E-02,-4.013E+00,2.500E+00
7.00E+01,4.898E+01,2.746E-02,-4.114E+00,2.500E+00
7.10E+01,5.012E+01,3.100E-02,-4.199E+00,2.500E+00
7.20E+01,5.129E+01,3.429E-02,-4.297E+00,2.500E+00
7.30E+01,5.248E+01,3.918E-02,-4.395E+00,2.500E+00
7.40E+01,5.370E+01,4.222E-02,-4.501E+00,2.500E+00
7.50E+01,5.495E+01,4.452E-02,-4.610E+00,2.500E+00
7.60E+01,5.623E+01,4.718E-02,-4.710E+00,2.500E+00
7.70E+01,5.754E+01,4.994E-02,-4.828E+00,2.500E+00
7.80E+01,5.888E+01,5.271E-02,-4.949E+00,2.500E+00
7.90E+01,6.026E+01,5.782E-02,-5.075E+00,2.500E+00
8.00E+01,6.166E+01,6.012E-02,-5.182E+00,2.500E+00
8.10E+01,6.310E+01,6.532E-02,-5.303E+00,2.500E+00
8.20E+01,6.457E+01,7.162E-02,-5.435E+00,2.500E+00
8.30E+01,6.607E+01,7.512E-02,-5.582E+00,2.500E+00
8.40E+01,6.761E+01,7.929E-02,-5.688E+00,2.500E+00
8.50E+01,6.918E+01,8.228E-02,-5.836E+00,2.500E+00
8.60E+01,7.079E+01,8.775E-02,-5.972E+00,2.500E+00
8.70E+01,7.244E+01,9.259E-02,-6.112E+00,2.500E+00
8.80E+01,7.413E+01,1.004E-01,-6.258E+00,2.500E+00
8.90E+01,7.586E+01,1.051E-01,-6.411E+00,2.500E+00
9.00E+01,7.762E+01,1.128E-01,-6.565E+00,2.500E+00
9.10E+01,7.943E+01,1.186E-01,-6.720E+00,2.500E+00
9.20E+01,8.128E+01,1.234E-01,-6.887E+00,2.500E+00
9.30E+01,8.318E+01,1.290E-01,-7.060E+00,2.500E+00
9.40E+01,8.511E+01,1.360E-01,-7.214E+00,2.500E+00
9.50E+01,8.710E+01,1.466E-01,-7.419E+00,2.500E+00
9.60E+01,8.913E+01,1.528E-01,-7.587E+00,2.500E+00
9.70E+01,9.120E+01,1.635E-01,-7.766E+00,2.500E+00
9.80E+01,9.333E+01,1.716E-01,-7.954E+00,2.500E+00
9.90E+01,9.550E+01,1.809E-01,-8.152E+00,2.500E+00
1.00E+02,9.772E+01,1.894E-01,-8.349E+00,2.500E+00
1.01E+02,1.000E+02,1.983E-01,-8.557E+00,2.500E+00
1.02E+02,1.023E+02,2.112E-01,-8.777E+00,2.500E+00
1.03E+02,1.047E+02,2.211E-01,-8.991E+00,2.500E+00
1.04E+02,1.072E+02,2.338E-01,-9.218E+00,2.500E+00
1.05E+02,1.096E+02,2.460E-01,-9.422E+00,2.500E+00
1.06E+02,1.122E+02,2.578E-01,-9.660E+00,2.500E+00
1.07E+02,1.148E+02,2.688E-01,-9.904E+00,2.500E+00
1.08E+02,1.175E+02,2.833E-01,-1.016E+01,2.500E+00
1.09E+02,1.202E+02,2.990E-01,-1.042E+01,2.500E+00
1.10E+02,1.230E+02,3.120E-01,-1.069E+01,2.500E+00
1.11E+02,1.259E+02,3.313E-01,-1.096E+01,2.500E+00
1.12E+02,1.288E+02,3.463E-01,-1.125E+01,2.500E+00
1.13E+02,1.318E+02,3.639E-01,-1.154E+01,2.500E+00
1.14E+02,1.349E+02,3.813E-01,-1.184E+01,2.500E+00
1.15E+02,1.380E+02,4.000E-01,-1.214E+01,2.500E+00
1.16E+02,1.413E+02,4.218E-01,-1.247E+01,2.500E+00
1.17E+02,1.445E+02,4.412E-01,-1.278E+01,2.500E+00
1.18E+02,1.479E+02,4.644E-01,-1.312E+01,2.500E+00
1.19E+02,1.514E+02,4.875E-01,-1.347E+01,2.500E+00
1.20E+02,1.549E+02,5.115E-01,-1.383E+01,2.500E+00
1.21E+02,1.585E+02,5.335E-01,-1.420E+01,2.500E+00
1.22E+02,1.622E+02,5.607E-01,-1.459E+01,2.500E+00
1.23E+02,1.660E+02,5.890E-01,-1.499E+01,2.500E+00
1.24E+02,1.698E+02,6.190E-01,-1.539E+01,2.500E+00
1.25E+02,1.738E+02,6.475E-01,-1.581E+01,2.500E+00
1.26E+02,1.778E+02,6.791E-01,-1.625E+01,2.500E+00
1.27E+02,1.820E+02,7.127E-01,-1.672E+01,2.500E+00
1.28E+02,1.862E+02,7.473E-01,-1.719E+01,2.500E+00
1.29E+02,1.905E+02,7.817E-01,-1.768E+01,2.500E+00
1.30E+02,1.950E+02,8.196E-01,-1.820E+01,2.500E+00
1.31E+02,1.995E+02,8.593E-01,-1.874E+01,2.500E+00
1.32E+02,2.042E+02,8.999E-01,-1.927E+01,2.500E+00
1.33E+02,2.089E+02,9.432E-01,-1.983E+01,2.500E+00
1.34E+02,2.138E+02,9.919E-01,-2.042E+01,2.500E+00
1.35E+02,2.188E+02,1.037E+00,-2.103E+01,2.500E+00
1.36E+02,2.239E+02,1.087E+00,-2.166E+01,2.500E+00
1.37E+02,2.291E+02,1.138E+00,-2.233E+01,2.500E+00
1.38E+02,2.344E+02,1.188E+00,-2.302E+01,2.500E+00
1.39E+02,2.399E+02,1.244E+00,-2.377E+01,2.500E+00
1.40E+02,2.455E+02,1.303E+00,-2.455E+01,2.500E+00
1.41E+02,2.512E+02,1.364E+00,-2.536E+01,2.500E+00
1.42E+02,2.570E+02,1.425E+00,-2.619E+01,2.500E+00
1.43E+02,2.630E+02,1.489E+00,-2.707E+01,2.500E+00
1.44E+02,2.692E+02,1.520E+00,-2.801E+01,2.500E+00
1.45E+02,2.754E+02,1.592E+00,-2.897E+01,2.500E+00
1.46E+02,2.818E+02,1.665E+00,-2.998E+01,2.500E+00
1.47E+02,2.884E+02,1.742E+00,-3.105E+01,2.500E+00
1.48E+02,2.951E+02,1.816E+00,-3.219E+01,2.500E+00
1.49E+02,3.020E+02,1.900E+00,-3.338E+01,2.500E+00
1.50E+02,3.090E+02,1.981E+00,-3.463E+01,2.500E+00
1.51E+02,3.162E+02,2.065E+00,-3.596E+01,2.500E+00
1.52E+02,3.236E+02,2.151E+00,-3.738E+01,2.500E+00
1.53E+02,3.311E+02,2.240E+00,-3.886E+01,2.500E+00
1.54E+02,3.388E+02,2.326E+00,-4.042E+01,2.500E+00
1.55E+02,3.467E+02,2.417E+00,-4.207E+01,2.500E+00
1.56E+02,3.548E+02,2.503E+00,-4.384E+01,2.500E+00
1.57E+02,3.631E+02,2.587E+00,-4.572E+01,2.500E+00
1.58E+02,3.715E+02,2.670E+00,-4.772E+01,2.500E+00
1.59E+02,3.802E+02,2.750E+00,-4.985E+01,2.500E+00
1.60E+02,3.890E+02,2.823E+00,-5.208E+01,2.500E+00
1.61E+02,3.981E+02,2.887E+00,-5.446E+01,2.500E+00
1.62E+02,4.074E+02,2.947E+00,-5.697E+01,2.500E+00
1.63E+02,4.169E+02,2.996E+00,-5.955E+01,2.500E+00
1.64E+02,4.266E+02,3.031E+00,-6.228E+01,2.500E+00
1.65E+02,4.365E+02,3.052E+00,-6.510E+01,2.500E+00
1.66E+02,4.467E+02,3.052E+00,-6.808E+01,2.500E+00
1.67E+02,4.571E+02,3.023E+00,-7.116E+01,2.500E+00
1.68E+02,4.677E+02,2.966E+00,-7.434E+01,2.500E+00
1.69E+02,4.786E+02,2.891E+00,-7.766E+01,2.500E+00
1.70E+02,4.898E+02,2.782E+00,-8.105E+01,2.500E+00
1.71E+02,5.012E+02,2.649E+00,-8.447E+01,2.500E+00
1.72E+02,5.129E+02,2.482E+00,-8.789E+01,2.500E+00
1.73E+02,5.248E+02,2.288E+00,-9.127E+01,2.500E+00
1.74E+02,5.370E+02,2.063E+00,-9.462E+01,2.500E+00
1.75E+02,5.495E+02,1.803E+00,-9.792E+01,2.500E+00
1.76E+02,5.623E+02,1.520E+00,-1.012E+02,2.500E+00
1.77E+02,5.754E+02,1.210E+00,-1.043E+02,2.500E+00
1.78E+02,5.888E+02,8.742E-01,-1.074E+02,2.500E+00
1.79E+02,6.026E+02,5.142E-01,-1.103E+02,2.500E+00
1.80E+02,6.166E+02,1.371E-01,-1.132E+02,2.500E+00
1.81E+02,6.310E+02,-2.608E-01,-1.159E+02,2.500E+00
1.82E+02,6.457E+02,-6.678E-01,-1.186E+02,2.500E+00
1.83E+02,6.607E+02,-1.085E+00,-1.211E+02,2.500E+00
1.84E+02,6.761E+02,-1.511E+00,-1.234E+02,2.500E+00
1.85E+02,6.918E+02,-1.929E+00,-1.256E+02,2.500E+00
1.86E+02,7.079E+02,-2.381E+00,-1.278E+02,2.500E+00
1.87E+02,7.244E+02,-2.841E+00,-1.298E+02,2.500E+00
1.88E+02,7.413E+02,-3.309E+00,-1.318E+02,2.500E+00
1.89E+02,7.586E+02,-3.781E+00,-1.337E+02,2.500E+00
1.90E+02,7.762E+02,-4.241E+00,-1.355E+02,2.500E+00
1.91E+02,7.943E+02,-4.711E+00,-1.372E+02,2.500E+00
1.92E+02,8.128E+02,-5.185E+00,-1.387E+02,2.500E+00
1.93E+02,8.318E+02,-5.638E+00,-1.401E+02,2.500E+00
1.94E+02,8.511E+02,-6.100E+00,-1.415E+02,2.500E+00
1.95E+02,8.710E+02,-6.565E+00,-1.428E+02,2.500E+00
1.96E+02,8.913E+02,-7.034E+00,-1.440E+02,2.500E+00
1.97E+02,9.120E+02,-7.506E+00,-1.452E+02,2.500E+00
1.98E+02,9.333E+02,-7.976E+00,-1.464E+02,2.500E+00
1.99E+02,9.550E+02,-8.447E+00,-1.475E+02,2.500E+00
2.00E+02,9.772E+02,-8.907E+00,-1.486E+02,2.500E+00
2.01E+02,1.000E+03,-9.347E+00,-1.497E+02,2.500E+00
2.02E+02,1.023E+03,-9.807E+00,-1.506E+02,2.500E+00
2.03E+02,1.047E+03,-1.027E+01,-1.515E+02,2.500E+00
2.04E+02,1.072E+03,-1.073E+01,-1.523E+02,2.500E+00
2.05E+02,1.096E+03,-1.119E+01,-1.532E+02,2.500E+00
2.06E+02,1.122E+03,-1.164E+01,-1.540E+02,2.500E+00
2.07E+02,1.148E+03,-1.208E+01,-1.549E+02,2.500E+00
2.08E+02,1.175E+03,-1.251E+01,-1.557E+02,2.500E+00
2.09E+02,1.202E+03,-1.295E+01,-1.563E+02,2.500E+00
2.10E+02,1.230E+03,-1.339E+01,-1.570E+02,2.500E+00
2.11E+02,1.259E+03,-1.385E+01,-1.576E+02,2.500E+00
2.12E+02,1.288E+03,-1.431E+01,-1.583E+02,2.500E+00
2.13E+02,1.318E+03,-1.476E+01,-1.590E+02,2.500E+00
2.14E+02,1.349E+03,-1.520E+01,-1.596E+02,2.500E+00
2.15E+02,1.380E+03,-1.562E+01,-1.601E+02,2.500E+00
2.16E+02,1.413E+03,-1.605E+01,-1.605E+02,2.500E+00
2.17E+02,1.445E+03,-1.648E+01,-1.609E+02,2.500E+00
2.18E+02,1.479E+03,-1.691E+01,-1.615E+02,2.500E+00
2.19E+02,1.514E+03,-1.734E+01,-1.621E+02,2.500E+00
2.20E+02,1.549E+03,-1.776E+01,-1.626E+02,2.500E+00
2.21E+02,1.585E+03,-1.819E+01,-1.631E+02,2.500E+00
2.22E+02,1.622E+03,-1.862E+01,-1.635E+02,2.500E+00
2.23E+02,1.660E+03,-1.907E+01,-1.638E+02,2.500E+00
2.24E+02,1.698E+03,-1.951E+01,-1.642E+02,2.500E+00
2.25E+02,1.738E+03,-1.992E+01,-1.647E+02,2.500E+00
2.26E+02,1.778E+03,-2.032E+01,-1.650E+02,2.500E+00
2.27E+02,1.820E+03,-2.071E+01,-1.653E+02,2.500E+00
2.28E+02,1.862E+03,-2.114E+01,-1.657E+02,2.500E+00
2.29E+02,1.905E+03,-2.157E+01,-1.662E+02,2.500E+00
2.30E+02,1.950E+03,-2.199E+01,-1.666E+02,2.500E+00
2.31E+02,1.995E+03,-2.240E+01,-1.669E+02,2.500E+00
2.32E+02,2.042E+03,-2.282E+01,-1.671E+02,2.500E+00
2.33E+02,2.089E+03,-2.323E+01,-1.673E+02,2.500E+00
2.34E+02,2.138E+03,-2.366E+01,-1.676E+02,2.500E+00
2.35E+02,2.188E+03,-2.408E+01,-1.679E+02,2.500E+00
2.36E+02,2.239E+03,-2.448E+01,-1.683E+02,2.500E+00
2.37E+02,2.291E+03,-2.490E+01,-1.686E+02,2.500E+00
2.38E+02,2.344E+03,-2.530E+01,-1.690E+02,2.500E+00
2.39E+02,2.399E+03,-2.570E+01,-1.693E+02,2.500E+00
2.40E+02,2.455E+03,-2.612E+01,-1.695E+02,2.500E+00
2.41E+02,2.512E+03,-2.654E+01,-1.696E+02,2.500E+00
2.42E+02,2.570E+03,-2.697E+01,-1.698E+02,2.500E+00
2.43E+02,2.630E+03,-2.739E+01,-1.701E+02,2.500E+00
2.44E+02,2.692E+03,-2.780E+01,-1.703E+02,2.500E+00
2.45E+02,2.754E+03,-2.820E+01,-1.706E+02,2.500E+00
2.46E+02,2.818E+03,-2.858E+01,-1.707E+02,2.500E+00
2.47E+02,2.884E+03,-2.895E+01,-1.709E+02,2.500E+00
2.48E+02,2.951E+03,-2.936E+01,-1.711E+02,2.500E+00
2.49E+02,3.020E+03,-2.978E+01,-1.714E+02,2.500E+00
2.50E+02,3.090E+03,-3.019E+01,-1.717E+02,2.500E+00
2.51E+02,3.162E+03,-3.060E+01,-1.719E+02,2.500E+00
2.52E+02,3.236E+03,-3.100E+01,-1.721E+02,2.500E+00
2.53E+02,3.311E+03,-3.141E+01,-1.722E+02,2.500E+00
2.54E+02,3.388E+03,-3.183E+01,-1.722E+02,2.500E+00
2.55E+02,3.467E+03,-3.223E+01,-1.725E+02,2.500E+00
2.56E+02,3.548E+03,-3.262E+01,-1.727E+02,2.500E+00
2.57E+02,3.631E+03,-3.303E+01,-1.729E+02,2.500E+00
2.58E+02,3.715E+03,-3.343E+01,-1.731E+02,2.500E+00
2.59E+02,3.802E+03,-3.386E+01,-1.732E+02,2.500E+00
2.60E+02,3.890E+03,-3.428E+01,-1.734E+02,2.500E+00
2.61E+02,3.981E+03,-3.467E+01,-1.736E+02,2.500E+00
2.62E+02,4.074E+03,-3.506E+01,-1.736E+02,2.500E+00
2.63E+02,4.169E+03,-3.548E+01,-1.739E+02,2.500E+00
2.64E+02,4.266E+03,-3.588E+01,-1.739E+02,2.500E+00
2.65E+02,4.365E+03,-3.628E+01,-1.739E+02,2.500E+00
2.66E+02,4.467E+03,-3.667E+01,-1.741E+02,2.500E+00
2.67E+02,4.571E+03,-3.706E+01,-1.744E+02,2.500E+00
2.68E+02,4.677E+03,-3.746E+01,-1.746E+02,2.500E+00
2.69E+02,4.786E+03,-3.786E+01,-1.748E+02,2.500E+00
2.70E+02,4.898E+03,-3.826E+01,-1.750E+02,2.500E+00
2.71E+02,5.012E+03,-3.867E+01,-1.749E+02,2.500E+00
2.72E+02,5.129E+03,-3.908E+01,-1.750E+02,2.500E+00
2.73E+02,5.248E+03,-3.948E+01,-1.750E+02,2.500E+00
2.74E+02,5.370E+03,-3.988E+01,-1.753E+02,2.500E+00
2.75E+02,5.495E+03,-4.026E+01,-1.756E+02,2.500E+00
2.76E+02,5.623E+03,-4.065E+01,-1.758E+02,2.500E+00
2.77E+02,5.754E+03,-4.107E+01,-1.759E+02,2.500E+00
2.78E+02,5.888E+03,-4.146E+01,-1.759E+02,2.500E+00
2.79E+02,6.026E+03,-4.187E+01,-1.759E+02,2.500E+00
2.80E+02,6.166E+03,-4.227E+01,-1.759E+02,2.500E+00
2.81E+02,6.310E+03,-4.266E+01,-1.762E+02,2.500E+00
2.82E+02,6.457E+03,-4.303E+01,-1.765E+02,2.500E+00
2.83E+02,6.607E+03,-4.343E+01,-1.767E+02,2.500E+00
2.84E+02,6.761E+03,-4.384E+01,-1.765E+02,2.500E+00
2.85E+02,6.918E+03,-4.424E+01,-1.766E+02,2.500E+00
2.86E+02,7.079E+03,-4.462E+01,-1.768E+02,2.500E+00
2.87E+02,7.244E+03,-4.501E+01,-1.771E+02,2.500E+00
2.88E+02,7.413E+03,-4.538E+01,-1.774E+02,2.500E+00
2.89E+02,7.586E+03,-4.581E+01,-1.773E+02,2.500E+00
2.90E+02,7.762E+03,-4.621E+01,-1.772E+02,2.500E+00
2.91E+02,7.943E+03,-4.658E+01,-1.775E+02,2.500E+00
2.92E+02,8.128E+03,-4.696E+01,-1.779E+02,2.500E+00
2.93E+02,8.318E+03,-4.737E+01,-1.779E+02,2.500E+00
2.94E+02,8.511E+03,-4.776E+01,-1.779E+02,2.500E+00
2.95E+02,8.710E+03,-4.812E+01,-1.778E+02,2.500E+00
2.96E+02,8.913E+03,-4.850E+01,-1.781E+02,2.500E+00
2.97E+02,9.120E+03,-4.891E+01,-1.782E+02,2.500E+00
2.98E+02,9.333E+03,-4.928E+01,-1.786E+02,2.500E+00
2.99E+02,9.550E+03,-4.969E+01,-1.790E+02,2.500E+00
3.00E+02,9.772E+03,-5.013E+01,-1.794E+02,2.500E+00
3.01E+02,1.000E+04,-5.048E+01,-1.792E+02,2.500E+00
3.02E+02,1.023E+04,-5.086E+01,-1.791E+02,2.500E+00
3.03E+02,1.047E+04,-5.124E+01,-1.796E+02,2.500E+00
3.04E+02,1.072E+04,-5.159E+01,1.798E+02,2.500E+00
3.05E+02,1.096E+04,-5.197E+01,1.798E+02,2.500E+00
3.06E+02,1.122E+04,-5.239E+01,1.798E+02,2.500E+00
3.07E+02,1.148E+04,-5.276E+01,1.793E+02,2.500E+00
3.08E+02,1.175E+04,-5.313E+01,1.785E+02,2.500E+00
3.09E+02,1.202E+04,-5.351E+01,1.788E+02,2.500E+00
3.10E+02,1.230E+04,-5.382E+01,1.786E+02,2.500E+00
3.11E+02,1.259E+04,-5.424E+01,1.779E+02,2.500E+00
3.12E+02,1.288E+04,-5.463E+01,1.776E+02,2.500E+00
3.13E+02,1.318E+04,-5.498E+01,1.777E+02,2.500E+00
3.14E+02,1.349E+04,-5.537E+01,1.771E+02,2.500E+00
3.15E+02,1.380E+04,-5.567E+01,1.762E+02,2.500E+00
3.16E+02,1.413E+04,-5.604E+01,1.761E+02,2.500E+00
3.17E+02,1.445E+04,-5.642E+01,1.756E+02,2.500E+00
3.18E+02,1.479E+04,-5.679E+01,1.746E+02,2.500E+00
3.19E+02,1.514E+04,-5.710E+01,1.747E+02,2.500E+00
3.20E+02,1.549E+04,-5.750E+01,1.737E+02,2.500E+00
3.21E+02,1.585E+04,-5.782E+01,1.731E+02,2.500E+00
3.22E+02,1.622E+04,-5.818E+01,1.732E+02,2.500E+00
3.23E+02,1.660E+04,-5.849E+01,1.714E+02,2.500E+00
3.24E+02,1.698E+04,-5.880E+01,1.709E+02,2.500E+00
3.25E+02,1.738E+04,-5.911E+01,1.704E+02,2.500E+00
3.26E+02,1.778E+04,-5.953E+01,1.694E+02,2.500E+00
3.27E+02,1.820E+04,-5.982E+01,1.690E+02,2.500E+00
3.28E+02,1.862E+04,-6.006E+01,1.678E+02,2.500E+00
3.29E+02,1.905E+04,-6.036E+01,1.676E+02,2.500E+00
3.30E+02,1.950E+04,-6.074E+01,1.659E+02,2.500E+00
3.31E+02,1.995E+04,-6.103E+01,1.650E+02,2.500E+00
3.32E+02,2.042E+04,-6.133E+01,1.646E+02,2.500E+00
3.33E+02,2.089E+04,-6.152E+01,1.630E+02,2.500E+00
3.34E+02,2.138E+04,-6.181E+01,1.619E+02,2.500E+00
3.35E+02,2.188E+04,-6.206E+01,1.602E+02,2.500E+00
3.36E+02,2.239E+04,-6.231E+01,1.592E+02,2.500E+00
3.37E+02,2.291E+04,-6.251E+01,1.575E+02,2.500E+00
3.38E+02,2.344E+04,-6.286E+01,1.564E+02,2.500E+00
3.39E+02,2.399E+04,-6.293E+01,1.551E+02,2.500E+00
3.40E+02,2.455E+04,-6.313E+01,1.536E+02,2.500E+00
3.41E+02,2.512E+04,-6.302E+01,1.526E+02,2.500E+00
3.42E+02,2.570E+04,-6.368E+01,1.522E+02,2.500E+00
3.43E+02,2.630E+04,-6.360E+01,1.491E+02,2.500E+00
3.44E+02,2.692E+04,-6.366E+01,1.463E+02,2.500E+00
3.45E+02,2.754E+04,-6.392E+01,1.459E+02,2.500E+00
3.46E+02,2.818E+04,-6.410E+01,1.456E+02,2.500E+00
3.47E+02,2.884E+04,-6.406E+01,1.435E+02,2.500E+00
3.48E+02,2.951E+04,-6.398E+01,1.411E+02,2.500E+00
3.49E+02,3.020E+04,-6.426E+01,1.410E+02,2.500E+00
3.50E+02,3.090E+04,-6.424E+01,1.395E+02,2.500E+00
3.51E+02,3.162E+04,-6.409E+01,1.361E+02,2.500E+00
3.52E+02,3.236E+04,-6.434E+01,1.347E+02,2.500E+00
3.53E+02,3.311E+04,-6.431E+01,1.352E+02,2.500E+00
3.54E+02,3.388E+04,-6.415E+01,1.326E+02,2.500E+00
3.55E+02,3.467E+04,-6.401E+01,1.311E+02,2.500E+00
3.56E+02,3.548E+04,-6.424E+01,1.300E+02,2.500E+00
3.57E+02,3.631E+04,-6.415E+01,1.291E+02,2.500E+00
3.58E+02,3.715E+04,-6.401E+01,1.270E+02,2.500E+00
3.59E+02,3.802E+04,-6.406E+01,1.258E+02,2.500E+00
3.60E+02,3.890E+04,-6.373E+01,1.244E+02,2.500E+00
3.61E+02,3.981E+04,-6.351E+01,1.233E+02,2.500E+00
3.62E+02,4.074E+04,-6.373E+01,1.231E+02,2.500E+00
3.63E+02,4.169E+04,-6.343E+01,1.211E+02,2.500E+00
3.64E+02,4.266E+04,-6.338E+01,1.205E+02,2.500E+00
3.65E+02,4.365E+04,-6.337E+01,1.193E+02,2.500E+00
3.66E+02,4.467E+04,-6.305E+01,1.182E+02,2.500E+00
3.67E+02,4.571E+04,-6.284E+01,1.177E+02,2.500E+00
3.68E+02,4.677E+04,-6.268E+01,1.163E+02,2.500E+00
3.69E+02,4.786E+04,-6.266E+01,1.165E+02,2.500E+00
3.70E+02,4.898E+04,-6.248E+01,1.153E+02,2.500E+00
3.71E+02,5.012E+04,-6.213E+01,1.146E+02,2.500E+00
3.72E+02,5.129E+04,-6.192E+01,1.137E+02,2.500E+00
3.73E+02,5.248E+04,-6.183E+01,1.130E+02,2.500E+00
3.74E+02,5.370E+04,-6.169E+01,1.123E+02,2.500E+00
3.75E+02,5.495E+04,-6.135E+01,1.116E+02,2.500E+00
3.76E+02,5.623E+04,-6.123E+01,1.114E+02,2.500E+00
3.77E+02,5.754E+04,-6.118E+01,1.105E+02,2.500E+00
3.78E+02,5.888E+04,-6.082E+01,1.109E+02,2.500E+00
3.79E+02,6.026E+04,-6.060E+01,1.103E+02,2.500E+00
3.80E+02,6.166E+04,-6.044E+01,1.098E+02,2.500E+00
3.81E+02,6.310E+04,-6.050E+01,1.090E+02,2.500E+00
3.82E+02,6.457E+04,-6.047E+01,1.093E+02,2.500E+00
3.83E+02,6.607E+04,-6.014E+01,1.090E+02,2.500E+00
3.84E+02,6.761E+04,-5.981E+01,1.080E+02,2.500E+00
3.85E+02,6.918E+04,-5.963E+01,1.084E+02,2.500E+00
3.86E+02,7.079E+04,-5.959E+01,1.080E+02,2.500E+00
3.87E+02,7.244E+04,-5.933E+01,1.079E+02,2.500E+00
3.88E+02,7.413E+04,-5.893E+01,1.077E+02,2.500E+00
3.89E+02,7.586E+04,-5.885E+01,1.078E+02,2.500E+00
3.90E+02,7.762E+04,-5.874E+01,1.076E+02,2.500E+00
3.91E+02,7.943E+04,-5.839E+01,1.070E+02,2.500E+00
3.92E+02,8.128E+04,-5.815E+01,1.069E+02,2.500E+00
3.93E+02,8.318E+04,-5.802E+01,1.072E+02,2.500E+00
3.94E+02,8.511E+04,-5.777E+01,1.071E+02,2.500E+00
3.95E+02,8.710E+04,-5.749E+01,1.068E+02,2.500E+00
