in Sa,Frequency in Hz,Gain in dB,Phase in °,Amplitude in Vpp
1.00E+00,1.000E+01,-1.035E-01,-1.963E+00,1.000E-01
2.00E+00,1.023E+01,2.547E-02,-1.914E+00,1.000E-01
3.00E+00,1.047E+01,2.806E-02,-2.043E+00,1.000E-01
4.00E+00,1.072E+01,-1.040E-01,-2.080E+00,1.000E-01
5.00E+00,1.096E+01,-1.062E-01,-2.117E+00,1.000E-01
6.00E+00,1.122E+01,-1.148E-01,-2.187E+00,1.000E-01
7.00E+00,1.148E+01,-1.114E-01,-2.202E+00,1.000E-01
8.00E+00,1.175E+01,-1.092E-01,-2.221E+00,1.000E-01
9.00E+00,1.202E+01,-1.178E-01,-2.288E+00,1.000E-01
1.00E+01,1.230E+01,3.276E-02,-2.400E+00,1.000E-01
1.10E+01,1.259E+01,3.934E-02,-2.451E+00,1.000E-01
1.20E+01,1.288E+01,-1.164E-01,-2.442E+00,1.000E-01
1.30E+01,1.318E+01,-1.225E-01,-2.516E+00,1.000E-01
1.40E+01,1.349E+01,-1.239E-01,-2.596E+00,1.000E-01
1.50E+01,1.380E+01,-1.236E-01,-2.652E+00,1.000E-01
1.60E+01,1.413E+01,4.537E-02,-2.736E+00,1.000E-01
1.70E+01,1.445E+01,-1.313E-01,-2.742E+00,1.000E-01
1.80E+01,1.479E+01,5.254E-02,-3.035E+00,1.000E-01
1.90E+01,1.514E+01,5.221E-02,-2.958E+00,1.000E-01
2.00E+01,1.549E+01,4.883E-02,-3.038E+00,1.000E-01
2.10E+01,1.585E+01,5.223E-02,-3.154E+00,1.000E-01
2.20E+01,1.622E+01,-1.332E-01,-2.862E+00,1.000E-01
2.30E+01,1.660E+01,-1.460E-01,-3.052E+00,1.000E-01
2.40E+01,1.698E+01,5.843E-02,-3.358E+00,1.000E-01
2.50E+01,1.738E+01,5.874E-02,-3.396E+00,1.000E-01
2.60E+01,1.778E+01,-1.546E-01,-3.259E+00,1.000E-01
2.70E+01,1.820E+01,6.372E-02,-3.670E+00,1.000E-01
2.80E+01,1.862E+01,-1.625E-01,-3.431E+00,1.000E-01
2.90E+01,1.905E+01,6.524E-02,-3.947E+00,1.000E-01
3.00E+01,1.950E+01,-1.564E-01,-3.516E+00,1.000E-01
3.10E+01,1.995E+01,7.237E-02,-4.080E+00,1.000E-01
3.20E+01,2.042E+01,6.792E-02,-4.240E+00,1.000E-01
3.30E+01,2.089E+01,7.629E-02,-4.464E+00,1.000E-01
3.40E+01,2.138E+01,-1.842E-01,-3.934E+00,1.000E-01
3.50E+01,2.188E+01,8.243E-02,-4.391E+00,1.000E-01
3.60E+01,2.239E+01,8.264E-02,-4.614E+00,1.000E-01
3.70E+01,2.291E+01,8.208E-02,-4.620E+00,1.000E-01
3.80E+01,2.344E+01,7.414E-02,-4.881E+00,1.000E-01
3.90E+01,2.399E+01,8.387E-02,-4.980E+00,1.000E-01
4.00E+01,2.455E+01,-1.933E-01,-4.351E+00,1.000E-01
4.10E+01,2.512E+01,9.508E-02,-5.156E+00,1.000E-01
4.20E+01,2.570E+01,-2.001E-01,-4.631E+00,1.000E-01
4.30E+01,2.630E+01,9.288E-02,-5.471E+00,1.000E-01
4.40E+01,2.692E+01,-2.062E-01,-4.815E+00,1.000E-01
4.50E+01,2.754E+01,1.069E-01,-5.749E+00,1.000E-01
4.60E+01,2.818E+01,-2.140E-01,-5.030E+00,1.000E-01
4.70E+01,2.884E+01,-2.259E-01,-5.179E+00,1.000E-01
4.80E+01,2.951E+01,-2.376E-01,-5.252E+00,1.000E-01
4.90E+01,3.020E+01,-8.634E-02,-5.940E+00,1.000E-01
5.00E+01,3.090E+01,-8.170E-02,-6.093E+00,1.000E-01
5.10E+01,3.162E+01,-8.516E-02,-6.222E+00,1.000E-01
5.20E+01,3.236E+01,-9.189E-02,-6.370E+00,1.000E-01
5.30E+01,3.311E+01,-9.634E-02,-6.545E+00,1.000E-01
5.40E+01,3.388E+01,-9.568E-02,-6.675E+00,1.000E-01
5.50E+01,3.467E+01,-9.730E-02,-6.813E+00,1.000E-01
5.60E+01,3.548E+01,-1.053E-01,-6.987E+00,1.000E-01
5.70E+01,3.631E+01,-1.059E-01,-7.143E+00,1.000E-01
5.80E+01,3.715E+01,-1.096E-01,-7.314E+00,1.000E-01
5.90E+01,3.802E+01,-1.152E-01,-7.419E+00,1.000E-01
6.00E+01,3.890E+01,-1.156E-01,-7.651E+00,1.000E-01
6.10E+01,3.981E+01,-1.150E-01,-7.814E+00,1.000E-01
6.20E+01,4.074E+01,-1.226E-01,-7.996E+00,1.000E-01
6.30E+01,4.169E+01,-1.302E-01,-8.195E+00,1.000E-01
6.40E+01,4.266E+01,-1.339E-01,-8.402E+00,1.000E-01
6.50E+01,4.365E+01,-1.360E-01,-8.570E+00,1.000E-01
6.60E+01,4.467E+01,-1.425E-01,-8.785E+00,1.000E-01
6.70E+01,4.571E+01,-1.422E-01,-8.963E+00,1.000E-01
6.80E+01,4.677E+01,-1.460E-01,-9.192E+00,1.000E-01
6.90E+01,4.786E+01,-1.574E-01,-9.395E+00,1.000E-01
7.00E+01,4.898E+01,-1.597E-01,-9.579E+00,1.000E-01
7.10E+01,5.012E+01,-1.686E-01,-9.789E+00,1.000E-01
7.20E+01,5.129E+01,-1.773E-01,-1.005E+01,1.000E-01
7.30E+01,5.248E+01,-1.781E-01,-1.026E+01,1.000E-01
7.40E+01,5.370E+01,-1.911E-01,-1.050E+01,1.000E-01
7.50E+01,5.495E+01,-1.953E-01,-1.075E+01,1.000E-01
7.60E+01,5.623E+01,-1.911E-01,-1.099E+01,1.000E-01
7.70E+01,5.754E+01,-2.106E-01,-1.122E+01,1.000E-01
7.80E+01,5.888E+01,-2.112E-01,-1.149E+01,1.000E-01
7.90E+01,6.026E+01,-2.232E-01,-1.177E+01,1.000E-01
8.00E+01,6.166E+01,-2.353E-01,-1.205E+01,1.000E-01
8.10E+01,6.310E+01,-2.432E-01,-1.228E+01,1.000E-01
8.20E+01,6.457E+01,-2.576E-01,-1.259E+01,1.000E-01
8.30E+01,6.607E+01,-2.650E-01,-1.284E+01,1.000E-01
8.40E+01,6.761E+01,-2.721E-01,-1.309E+01,1.000E-01
8.50E+01,6.918E+01,-2.896E-01,-1.341E+01,1.000E-01
8.60E+01,7.079E+01,-2.959E-01,-1.374E+01,1.000E-01
8.70E+01,7.244E+01,-3.070E-01,-1.401E+01,1.000E-01
8.80E+01,7.413E+01,-3.219E-01,-1.434E+01,1.000E-01
8.90E+01,7.586E+01,-3.338E-01,-1.466E+01,1.000E-01
9.00E+01,7.762E+01,-3.459E-01,-1.496E+01,1.000E-01
9.10E+01,7.943E+01,-3.636E-01,-1.527E+01,1.000E-01
9.20E+01,8.128E+01,-3.828E-01,-1.566E+01,1.000E-01
9.30E+01,8.318E+01,-3.891E-01,-1.601E+01,1.000E-01
9.40E+01,8.511E+01,-4.008E-01,-1.636E+01,1.000E-01
9.50E+01,8.710E+01,-4.199E-01,-1.671E+01,1.000E-01
9.60E+01,8.913E+01,-4.370E-01,-1.708E+01,1.000E-01
9.70E+01,9.120E+01,-4.554E-01,-1.741E+01,1.000E-01
9.80E+01,9.333E+01,-4.713E-01,-1.782E+01,1.000E-01
9.90E+01,9.550E+01,-4.988E-01,-1.820E+01,1.000E-01
1.00E+02,9.772E+01,-5.120E-01,-1.858E+01,1.000E-01
1.01E+02,1.000E+02,-5.418E-01,-1.896E+01,1.000E-01
1.02E+02,1.023E+02,-5.639E-01,-1.940E+01,1.000E-01
1.03E+02,1.047E+02,-5.810E-01,-1.983E+01,1.000E-01
1.04E+02,1.072E+02,-6.053E-01,-2.027E+01,1.000E-01
1.05E+02,1.096E+02,-6.317E-01,-2.068E+01,1.000E-01
1.06E+02,1.122E+02,-6.493E-01,-2.112E+01,1.000E-01
1.07E+02,1.148E+02,-6.816E-01,-2.149E+01,1.000E-01
1.08E+02,1.175E+02,-7.171E-01,-2.204E+01,1.000E-01
1.09E+02,1.202E+02,-7.389E-01,-2.243E+01,1.000E-01
1.10E+02,1.230E+02,-7.679E-01,-2.298E+01,1.000E-01
1.11E+02,1.259E+02,-8.024E-01,-2.339E+01,1.000E-01
1.12E+02,1.288E+02,-8.311E-01,-2.390E+01,1.000E-01
1.13E+02,1.318E+02,-8.667E-01,-2.437E+01,1.000E-01
1.14E+02,1.349E+02,-9.027E-01,-2.487E+01,1.000E-01
1.15E+02,1.380E+02,-9.347E-01,-2.539E+01,1.000E-01
1.16E+02,1.413E+02,-9.738E-01,-2.588E+01,1.000E-01
1.17E+02,1.445E+02,-1.010E+00,-2.644E+01,1.000E-01
1.18E+02,1.479E+02,-1.057E+00,-2.690E+01,1.000E-01
1.19E+02,1.514E+02,-1.101E+00,-2.749E+01,1.000E-01
1.20E+02,1.549E+02,-1.146E+00,-2.804E+01,1.000E-01
1.21E+02,1.585E+02,-1.190E+00,-2.856E+01,1.000E-01
1.22E+02,1.622E+02,-1.241E+00,-2.914E+01,1.000E-01
1.23E+02,1.660E+02,-1.287E+00,-2.970E+01,1.000E-01
1.24E+02,1.698E+02,-1.332E+00,-3.026E+01,1.000E-01
1.25E+02,1.738E+02,-1.392E+00,-3.084E+01,1.000E-01
1.26E+02,1.778E+02,-1.452E+00,-3.138E+01,1.000E-01
1.27E+02,1.820E+02,-1.503E+00,-3.202E+01,1.000E-01
1.28E+02,1.862E+02,-1.554E+00,-3.257E+01,1.000E-01
1.29E+02,1.905E+02,-1.618E+00,-3.320E+01,1.000E-01
1.30E+02,1.950E+02,-1.674E+00,-3.374E+01,1.000E-01
1.31E+02,1.995E+02,-1.737E+00,-3.442E+01,1.000E-01
1.32E+02,2.042E+02,-1.803E+00,-3.495E+01,1.000E-01
1.33E+02,2.089E+02,-1.881E+00,-3.565E+01,1.000E-01
1.34E+02,2.138E+02,-1.938E+00,-3.624E+01,1.000E-01
1.35E+02,2.188E+02,-2.009E+00,-3.688E+01,1.000E-01
1.36E+02,2.239E+02,-2.078E+00,-3.743E+01,1.000E-01
1.37E+02,2.291E+02,-2.176E+00,-3.820E+01,1.000E-01
1.38E+02,2.344E+02,-2.238E+00,-3.882E+01,1.000E-01
1.39E+02,2.399E+02,-2.328E+00,-3.948E+01,1.000E-01
1.40E+02,2.455E+02,-2.412E+00,-4.011E+01,1.000E-01
1.41E+02,2.512E+02,-2.481E+00,-4.068E+01,1.000E-01
1.42E+02,2.570E+02,-2.578E+00,-4.142E+01,1.000E-01
1.43E+02,2.630E+02,-2.666E+00,-4.207E+01,1.000E-01
1.44E+02,2.692E+02,-2.764E+00,-4.271E+01,1.000E-01
1.45E+02,2.754E+02,-2.853E+00,-4.333E+01,1.000E-01
1.46E+02,2.818E+02,-2.945E+00,-4.398E+01,1.000E-01
1.47E+02,2.884E+02,-3.043E+00,-4.460E+01,1.000E-01
1.48E+02,2.951E+02,-3.149E+00,-4.525E+01,1.000E-01
1.49E+02,3.020E+02,-3.244E+00,-4.592E+01,1.000E-01
1.50E+02,3.090E+02,-3.355E+00,-4.661E+01,1.000E-01
1.51E+02,3.162E+02,-3.463E+00,-4.727E+01,1.000E-01
1.52E+02,3.236E+02,-3.575E+00,-4.785E+01,1.000E-01
1.53E+02,3.311E+02,-3.697E+00,-4.857E+01,1.000E-01
1.54E+02,3.388E+02,-3.802E+00,-4.919E+01,1.000E-01
1.55E+02,3.467E+02,-3.917E+00,-4.988E+01,1.000E-01
1.56E+02,3.548E+02,-4.025E+00,-5.048E+01,1.000E-01
1.57E+02,3.631E+02,-4.141E+00,-5.109E+01,1.000E-01
1.58E+02,3.715E+02,-4.250E+00,-5.179E+01,1.000E-01
1.59E+02,3.802E+02,-4.382E+00,-5.238E+01,1.000E-01
1.60E+02,3.890E+02,-4.519E+00,-5.301E+01,1.000E-01
1.61E+02,3.981E+02,-4.642E+00,-5.371E+01,1.000E-01
1.62E+02,4.074E+02,-4.777E+00,-5.439E+01,1.000E-01
1.63E+02,4.169E+02,-4.893E+00,-5.498E+01,1.000E-01
1.64E+02,4.266E+02,-5.014E+00,-5.561E+01,1.000E-01
1.65E+02,4.365E+02,-5.183E+00,-5.619E+01,1.000E-01
1.66E+02,4.467E+02,-5.318E+00,-5.687E+01,1.000E-01
1.67E+02,4.571E+02,-5.467E+00,-5.746E+01,1.000E-01
1.68E+02,4.677E+02,-5.600E+00,-5.789E+01,1.000E-01
1.69E+02,4.786E+02,-5.756E+00,-5.861E+01,1.000E-01
1.70E+02,4.898E+02,-5.884E+00,-5.910E+01,1.000E-01
1.71E+02,5.012E+02,-6.032E+00,-5.961E+01,1.000E-01
1.72E+02,5.129E+02,-6.190E+00,-6.022E+01,1.000E-01
1.73E+02,5.248E+02,-6.350E+00,-6.082E+01,1.000E-01
1.74E+02,5.370E+02,-6.505E+00,-6.135E+01,1.000E-01
1.75E+02,5.495E+02,-6.667E+00,-6.189E+01,1.000E-01
1.76E+02,5.623E+02,-6.811E+00,-6.242E+01,1.000E-01
1.77E+02,5.754E+02,-6.968E+00,-6.311E+01,1.000E-01
1.78E+02,5.888E+02,-7.108E+00,-6.343E+01,1.000E-01
1.79E+02,6.026E+02,-7.313E+00,-6.412E+01,1.000E-01
1.80E+02,6.166E+02,-7.490E+00,-6.444E+01,1.000E-01
1.81E+02,6.310E+02,-7.618E+00,-6.500E+01,1.000E-01
1.82E+02,6.457E+02,-7.782E+00,-6.560E+01,1.000E-01
1.83E+02,6.607E+02,-7.976E+00,-6.587E+01,1.000E-01
1.84E+02,6.761E+02,-8.098E+00,-6.657E+01,1.000E-01
1.85E+02,6.918E+02,-8.319E+00,-6.687E+01,1.000E-01
1.86E+02,7.079E+02,-8.476E+00,-6.741E+01,1.000E-01
1.87E+02,7.244E+02,-8.625E+00,-6.786E+01,1.000E-01
1.88E+02,7.413E+02,-8.800E+00,-6.828E+01,1.000E-01
1.89E+02,7.586E+02,-8.970E+00,-6.874E+01,1.000E-01
1.90E+02,7.762E+02,-9.159E+00,-6.916E+01,1.000E-01
1.91E+02,7.943E+02,-9.314E+00,-6.974E+01,1.000E-01
1.92E+02,8.128E+02,-9.497E+00,-7.006E+01,1.000E-01
1.93E+02,8.318E+02,-9.701E+00,-7.053E+01,1.000E-01
1.94E+02,8.511E+02,-9.859E+00,-7.086E+01,1.000E-01
1.95E+02,8.710E+02,-1.001E+01,-7.139E+01,1.000E-01
1.96E+02,8.913E+02,-1.021E+01,-7.193E+01,1.000E-01
1.97E+02,9.120E+02,-1.043E+01,-7.214E+01,1.000E-01
1.98E+02,9.333E+02,-1.060E+01,-7.258E+01,1.000E-01
1.99E+02,9.550E+02,-1.075E+01,-7.281E+01,1.000E-01
2.00E+02,9.772E+02,-1.095E+01,-7.311E+01,1.000E-01
2.01E+02,1.000E+03,-1.115E+01,-7.357E+01,1.000E-01
2.02E+02,1.023E+03,-1.130E+01,-7.369E+01,1.000E-01
2.03E+02,1.047E+03,-1.152E+01,-7.412E+01,1.000E-01
2.04E+02,1.072E+03,-1.168E+01,-7.453E+01,1.000E-01
2.05E+02,1.096E+03,-1.188E+01,-7.489E+01,1.000E-01
2.06E+02,1.122E+03,-1.205E+01,-7.530E+01,1.000E-01
2.07E+02,1.148E+03,-1.224E+01,-7.562E+01,1.000E-01
2.08E+02,1.175E+03,-1.244E+01,-7.599E+01,1.000E-01
2.09E+02,1.202E+03,-1.261E+01,-7.600E+01,1.000E-01
2.10E+02,1.230E+03,-1.280E+01,-7.625E+01,1.000E-01
2.11E+02,1.259E+03,-1.300E+01,-7.679E+01,1.000E-01
2.12E+02,1.288E+03,-1.319E+01,-7.717E+01,1.000E-01
2.13E+02,1.318E+03,-1.336E+01,-7.756E+01,1.000E-01
2.14E+02,1.349E+03,-1.354E+01,-7.775E+01,1.000E-01
2.15E+02,1.380E+03,-1.376E+01,-7.788E+01,1.000E-01
2.16E+02,1.413E+03,-1.395E+01,-7.809E+01,1.000E-01
2.17E+02,1.445E+03,-1.416E+01,-7.841E+01,1.000E-01
2.18E+02,1.479E+03,-1.435E+01,-7.880E+01,1.000E-01
2.19E+02,1.514E+03,-1.450E+01,-7.875E+01,1.000E-01
2.20E+02,1.549E+03,-1.469E+01,-7.900E+01,1.000E-01
2.21E+02,1.585E+03,-1.488E+01,-7.944E+01,1.000E-01
2.22E+02,1.622E+03,-1.510E+01,-7.959E+01,1.000E-01
2.23E+02,1.660E+03,-1.528E+01,-7.991E+01,1.000E-01
2.24E+02,1.698E+03,-1.546E+01,-7.993E+01,1.000E-01
2.25E+02,1.738E+03,-1.565E+01,-8.042E+01,1.000E-01
2.26E+02,1.778E+03,-1.589E+01,-8.053E+01,1.000E-01
2.27E+02,1.820E+03,-1.603E+01,-8.082E+01,1.000E-01
2.28E+02,1.862E+03,-1.627E+01,-8.084E+01,1.000E-01
2.29E+02,1.905E+03,-1.644E+01,-8.097E+01,1.000E-01
2.30E+02,1.950E+03,-1.661E+01,-8.135E+01,1.000E-01
2.31E+02,1.995E+03,-1.685E+01,-8.163E+01,1.000E-01
2.32E+02,2.042E+03,-1.704E+01,-8.155E+01,1.000E-01
2.33E+02,2.089E+03,-1.723E+01,-8.193E+01,1.000E-01
2.34E+02,2.138E+03,-1.745E+01,-8.211E+01,1.000E-01
2.35E+02,2.188E+03,-1.760E+01,-8.223E+01,1.000E-01
2.36E+02,2.239E+03,-1.783E+01,-8.228E+01,1.000E-01
2.37E+02,2.291E+03,-1.801E+01,-8.242E+01,1.000E-01
2.38E+02,2.344E+03,-1.826E+01,-8.288E+01,1.000E-01
2.39E+02,2.399E+03,-1.843E+01,-8.320E+01,1.000E-01
2.40E+02,2.455E+03,-1.862E+01,-8.331E+01,1.000E-01
2.41E+02,2.512E+03,-1.877E+01,-8.322E+01,1.000E-01
2.42E+02,2.570E+03,-1.898E+01,-8.359E+01,1.000E-01
2.43E+02,2.630E+03,-1.921E+01,-8.361E+01,1.000E-01
2.44E+02,2.692E+03,-1.936E+01,-8.353E+01,1.000E-01
2.45E+02,2.754E+03,-1.960E+01,-8.385E+01,1.000E-01
2.46E+02,2.818E+03,-1.976E+01,-8.421E+01,1.000E-01
2.47E+02,2.884E+03,-1.994E+01,-8.404E+01,1.000E-01
2.48E+02,2.951E+03,-2.011E+01,-8.432E+01,1.000E-01
2.49E+02,3.020E+03,-2.036E+01,-8.445E+01,1.000E-01
2.50E+02,3.090E+03,-2.062E+01,-8.453E+01,1.000E-01
2.51E+02,3.162E+03,-2.078E+01,-8.467E+01,1.000E-01
2.52E+02,3.236E+03,-2.097E+01,-8.471E+01,1.000E-01
2.53E+02,3.311E+03,-2.117E+01,-8.470E+01,1.000E-01
2.54E+02,3.388E+03,-2.132E+01,-8.482E+01,1.000E-01
2.55E+02,3.467E+03,-2.155E+01,-8.504E+01,1.000E-01
2.56E+02,3.548E+03,-2.173E+01,-8.530E+01,1.000E-01
2.57E+02,3.631E+03,-2.199E+01,-8.556E+01,1.000E-01
2.58E+02,3.715E+03,-2.214E+01,-8.575E+01,1.000E-01
2.59E+02,3.802E+03,-2.236E+01,-8.547E+01,1.000E-01
2.60E+02,3.890E+03,-2.247E+01,-8.595E+01,1.000E-01
2.61E+02,3.981E+03,-2.271E+01,-8.577E+01,1.000E-01
2.62E+02,4.074E+03,-2.295E+01,-8.574E+01,1.000E-01
2.63E+02,4.169E+03,-2.311E+01,-8.586E+01,1.000E-01
2.64E+02,4.266E+03,-2.335E+01,-8.625E+01,1.000E-01
2.65E+02,4.365E+03,-2.346E+01,-8.613E+01,1.000E-01
2.66E+02,4.467E+03,-2.364E+01,-8.612E+01,1.000E-01
2.67E+02,4.571E+03,-2.395E+01,-8.643E+01,1.000E-01
2.68E+02,4.677E+03,-2.415E+01,-8.674E+01,1.000E-01
2.69E+02,4.786E+03,-2.441E+01,-8.707E+01,1.000E-01
2.70E+02,4.898E+03,-2.460E+01,-8.675E+01,1.000E-01
2.71E+02,5.012E+03,-2.473E+01,-8.660E+01,1.000E-01
2.72E+02,5.129E+03,-2.484E+01,-8.658E+01,1.000E-01
2.73E+02,5.248E+03,-2.508E+01,-8.651E+01,1.000E-01
2.74E+02,5.370E+03,-2.524E+01,-8.683E+01,1.000E-01
2.75E+02,5.495E+03,-2.553E+01,-8.681E+01,1.000E-01
2.76E+02,5.623E+03,-2.569E+01,-8.665E+01,1.000E-01
2.77E+02,5.754E+03,-2.593E+01,-8.729E+01,1.000E-01
2.78E+02,5.888E+03,-2.607E+01,-8.711E+01,1.000E-01
2.79E+02,6.026E+03,-2.636E+01,-8.785E+01,1.000E-01
2.80E+02,6.166E+03,-2.642E+01,-8.736E+01,1.000E-01
2.81E+02,6.310E+03,-2.671E+01,-8.753E+01,1.000E-01
2.82E+02,6.457E+03,-2.685E+01,-8.723E+01,1.000E-01
2.83E+02,6.607E+03,-2.708E+01,-8.778E+01,1.000E-01
2.84E+02,6.761E+03,-2.730E+01,-8.766E+01,1.000E-01
2.85E+02,6.918E+03,-2.739E+01,-8.773E+01,1.000E-01
2.86E+02,7.079E+03,-2.766E+01,-8.753E+01,1.000E-01
2.87E+02,7.244E+03,-2.779E+01,-8.834E+01,1.000E-01
2.88E+02,7.413E+03,-2.813E+01,-8.857E+01,1.000E-01
2.89E+02,7.586E+03,-2.824E+01,-8.807E+01,1.000E-01
2.90E+02,7.762E+03,-2.842E+01,-8.811E+01,1.000E-01
2.91E+02,7.943E+03,-2.865E+01,-8.840E+01,1.000E-01
2.92E+02,8.128E+03,-2.877E+01,-8.803E+01,1.000E-01
2.93E+02,8.318E+03,-2.912E+01,-8.896E+01,1.000E-01
2.94E+02,8.511E+03,-2.922E+01,-8.864E+01,1.000E-01
2.95E+02,8.710E+03,-2.942E+01,-8.873E+01,1.000E-01
2.96E+02,8.913E+03,-2.959E+01,-8.899E+01,1.000E-01
2.97E+02,9.120E+03,-2.975E+01,-8.818E+01,1.000E-01
2.98E+02,9.333E+03,-2.994E+01,-8.832E+01,1.000E-01
2.99E+02,9.550E+03,-3.033E+01,-8.915E+01,1.000E-01
3.00E+02,9.772E+03,-3.061E+01,-8.919E+01,1.000E-01
3.01E+02,1.000E+04,-3.061E+01,-8.958E+01,1.000E-01
3.02E+02,1.023E+04,-3.070E+01,-8.911E+01,1.000E-01
3.03E+02,1.047E+04,-3.106E+01,-8.920E+01,1.000E-01
3.04E+02,1.072E+04,-3.130E+01,-8.951E+01,1.000E-01
3.05E+02,1.096E+04,-3.145E+01,-8.928E+01,1.000E-01
3.06E+02,1.122E+04,-3.150E+01,-8.942E+01,1.000E-01
3.07E+02,1.148E+04,-3.186E+01,-8.936E+01,1.000E-01
3.08E+02,1.175E+04,-3.213E+01,-8.998E+01,1.000E-01
3.09E+02,1.202E+04,-3.219E+01,-8.994E+01,1.000E-01
3.10E+02,1.230E+04,-3.229E+01,-8.977E+01,1.000E-01
3.11E+02,1.259E+04,-3.253E+01,-9.032E+01,1.000E-01
3.12E+02,1.288E+04,-3.291E+01,-8.997E+01,1.000E-01
3.13E+02,1.318E+04,-3.292E+01,-9.017E+01,1.000E-01
3.14E+02,1.349E+04,-3.313E+01,-9.015E+01,1.000E-01
3.15E+02,1.380E+04,-3.347E+01,-9.035E+01,1.000E-01
3.16E+02,1.413E+04,-3.360E+01,-9.072E+01,1.000E-01
3.17E+02,1.445E+04,-3.383E+01,-8.979E+01,1.000E-01
3.18E+02,1.479E+04,-3.410E+01,-9.077E+01,1.000E-01
3.19E+02,1.514E+04,-3.414E+01,-9.057E+01,1.000E-01
3.20E+02,1.549E+04,-3.446E+01,-9.096E+01,1.000E-01
3.21E+02,1.585E+04,-3.470E+01,-9.043E+01,1.000E-01
3.22E+02,1.622E+04,-3.477E+01,-9.103E+01,1.000E-01
3.23E+02,1.660E+04,-3.499E+01,-9.092E+01,1.000E-01
3.24E+02,1.698E+04,-3.533E+01,-9.147E+01,1.000E-01
3.25E+02,1.738E+04,-3.533E+01,-9.056E+01,1.000E-01
3.26E+02,1.778E+04,-3.575E+01,-9.096E+01,1.000E-01
3.27E+02,1.820E+04,-3.566E+01,-9.109E+01,1.000E-01
3.28E+02,1.862E+04,-3.596E+01,-9.162E+01,1.000E-01
3.29E+02,1.905E+04,-3.628E+01,-9.139E+01,1.000E-01
3.30E+02,1.950E+04,-3.643E+01,-9.106E+01,1.000E-01
3.31E+02,1.995E+04,-3.670E+01,-9.178E+01,1.000E-01
3.32E+02,2.042E+04,-3.686E+01,-9.121E+01,1.000E-01
3.33E+02,2.089E+04,-3.711E+01,-9.239E+01,1.000E-01
3.34E+02,2.138E+04,-3.720E+01,-9.180E+01,1.000E-01
3.35E+02,2.188E+04,-3.760E+01,-9.205E+01,1.000E-01
3.36E+02,2.239E+04,-3.768E+01,-9.184E+01,1.000E-01
3.37E+02,2.291E+04,-3.802E+01,-9.248E+01,1.000E-01
3.38E+02,2.344E+04,-3.812E+01,-9.216E+01,1.000E-01
3.39E+02,2.399E+04,-3.829E+01,-9.319E+01,1.000E-01
3.40E+02,2.455E+04,-3.864E+01,-9.204E+01,1.000E-01
3.41E+02,2.512E+04,-3.838E+01,-9.206E+01,1.000E-01
3.42E+02,2.570E+04,-3.851E+01,-9.177E+01,1.000E-01
3.43E+02,2.630E+04,-3.916E+01,-9.187E+01,1.000E-01
3.44E+02,2.692E+04,-3.969E+01,-9.040E+01,1.000E-01
3.45E+02,2.754E+04,-3.940E+01,-9.202E+01,1.000E-01
3.46E+02,2.818E+04,-3.941E+01,-9.269E+01,1.000E-01
3.47E+02,2.884E+04,-3.964E+01,-9.173E+01,1.000E-01
3.48E+02,2.951E+04,-4.034E+01,-9.262E+01,1.000E-01
3.49E+02,3.020E+04,-4.016E+01,-9.286E+01,1.000E-01
3.50E+02,3.090E+04,-4.016E+01,-9.229E+01,1.000E-01
3.51E+02,3.162E+04,-4.077E+01,-9.391E+01,1.000E-01
3.52E+02,3.236E+04,-4.091E+01,-9.302E+01,1.000E-01
3.53E+02,3.311E+04,-4.066E+01,-9.154E+01,1.000E-01
3.54E+02,3.388E+04,-4.163E+01,-9.290E+01,1.000E-01
3.55E+02,3.467E+04,-4.177E+01,-9.325E+01,1.000E-01
3.56E+02,3.548E+04,-4.180E+01,-9.354E+01,1.000E-01
3.57E+02,3.631E+04,-4.207E+01,-9.412E+01,1.000E-01
3.58E+02,3.715E+04,-4.213E+01,-9.351E+01,1.000E-01
3.59E+02,3.802E+04,-4.217E+01,-9.299E+01,1.000E-01
3.60E+02,3.890E+04,-4.263E+01,-9.428E+01,1.000E-01
3.61E+02,3.981E+04,-4.292E+01,-9.353E+01,1.000E-01
3.62E+02,4.074E+04,-4.304E+01,-9.448E+01,1.000E-01
3.63E+02,4.169E+04,-4.326E+01,-9.451E+01,1.000E-01
3.64E+02,4.266E+04,-4.357E+01,-9.489E+01,1.000E-01
3.65E+02,4.365E+04,-4.339E+01,-9.293E+01,1.000E-01
3.66E+02,4.467E+04,-4.414E+01,-9.421E+01,1.000E-01
3.67E+02,4.571E+04,-4.391E+01,-9.401E+01,1.000E-01
3.68E+02,4.677E+04,-4.471E+01,-9.429E+01,1.000E-01
3.69E+02,4.786E+04,-4.451E+01,-9.377E+01,1.000E-01
3.70E+02,4.898E+04,-4.512E+01,-9.445E+01,1.000E-01
3.71E+02,5.012E+04,-4.511E+01,-9.371E+01,1.000E-01
3.72E+02,5.129E+04,-4.496E+01,-9.182E+01,1.000E-01
3.73E+02,5.248E+04,-4.565E+01,-9.186E+01,1.000E-01
3.74E+02,5.370E+04,-4.546E+01,-9.285E+01,1.000E-01
3.75E+02,5.495E+04,-4.601E+01,-9.372E+01,1.000E-01
3.76E+02,5.623E+04,-4.597E+01,-9.480E+01,1.000E-01
3.77E+02,5.754E+04,-4.665E+01,-9.426E+01,1.000E-01
3.78E+02,5.888E+04,-4.641E+01,-9.507E+01,1.000E-01
3.79E+02,6.026E+04,-4.673E+01,-9.299E+01,1.000E-01
3.80E+02,6.166E+04,-4.728E+01,-9.282E+01,1.000E-01
3.81E+02,6.310E+04,-4.745E+01,-9.271E+01,1.000E-01
3.82E+02,6.457E+04,-4.713E+01,-9.320E+01,1.000E-01
3.83E+02,6.607E+04,-4.775E+01,-9.089E+01,1.000E-01
3.84E+02,6.761E+04,-4.879E+01,-9.580E+01,1.000E-01
3.85E+02,6.918E+04,-4.854E+01,-9.614E+01,1.000E-01
3.86E+02,7.079E+04,-4.822E+01,-9.057E+01,1.000E-01
3.87E+02,7.244E+04,-4.886E+01,-9.246E+01,1.000E-01
3.88E+02,7.413E+04,-4.901E+01,-9.526E+01,1.000E-01
3.89E+02,7.586E+04,-4.900E+01,-9.657E+01,1.000E-01
3.90E+02,7.762E+04,-4.899E+01,-9.496E+01,1.000E-01
3.91E+02,7.943E+04,-4.966E+01,-9.596E+01,1.000E-01
