in Sa,Frequency in Hz,Gain in dB,Phase in °,Amplitude in Vpp
1.00E+00,1.000E+01,-1.456E-01,-1.045E+00,2.500E+00
2.00E+00,1.023E+01,-1.465E-01,-1.048E+00,2.500E+00
3.00E+00,1.047E+01,-1.503E-01,-1.095E+00,2.500E+00
4.00E+00,1.072E+01,-1.494E-01,-1.104E+00,2.500E+00
5.00E+00,1.096E+01,-1.519E-01,-1.134E+00,2.500E+00
6.00E+00,1.122E+01,-1.508E-01,-1.142E+00,2.500E+00
7.00E+00,1.148E+01,-1.490E-01,-1.194E+00,2.500E+00
8.00E+00,1.175E+01,-1.483E-01,-1.209E+00,2.500E+00
9.00E+00,1.202E+01,-1.535E-01,-1.233E+00,2.500E+00
1.00E+01,1.230E+01,-1.522E-01,-1.260E+00,2.500E+00
1.10E+01,1.259E+01,-1.525E-01,-1.298E+00,2.500E+00
1.20E+01,1.288E+01,-1.499E-01,-1.337E+00,2.500E+00
1.30E+01,1.318E+01,-1.506E-01,-1.376E+00,2.500E+00
1.40E+01,1.349E+01,-1.545E-01,-1.388E+00,2.500E+00
1.50E+01,1.380E+01,-1.553E-01,-1.412E+00,2.500E+00
1.60E+01,1.413E+01,-1.577E-01,-1.457E+00,2.500E+00
1.70E+01,1.445E+01,-1.569E-01,-1.492E+00,2.500E+00
1.80E+01,1.479E+01,-1.566E-01,-1.525E+00,2.500E+00
1.90E+01,1.514E+01,-1.580E-01,-1.565E+00,2.500E+00
2.00E+01,1.549E+01,-1.588E-01,-1.589E+00,2.500E+00
2.10E+01,1.585E+01,-1.619E-01,-1.623E+00,2.500E+00
2.20E+01,1.622E+01,-1.622E-01,-1.667E+00,2.500E+00
2.30E+01,1.660E+01,-1.610E-01,-1.707E+00,2.500E+00
2.40E+01,1.698E+01,-1.663E-01,-1.745E+00,2.500E+00
2.50E+01,1.738E+01,-1.654E-01,-1.785E+00,2.500E+00
2.60E+01,1.778E+01,-1.694E-01,-1.826E+00,2.500E+00
2.70E+01,1.820E+01,-1.666E-01,-1.875E+00,2.500E+00
2.80E+01,1.862E+01,-1.711E-01,-1.907E+00,2.500E+00
2.90E+01,1.905E+01,-1.691E-01,-1.958E+00,2.500E+00
3.00E+01,1.950E+01,-1.742E-01,-1.996E+00,2.500E+00
3.10E+01,1.995E+01,-1.738E-01,-2.047E+00,2.500E+00
3.20E+01,2.042E+01,-1.707E-01,-2.094E+00,2.500E+00
3.30E+01,2.089E+01,-1.770E-01,-2.144E+00,2.500E+00
3.40E+01,2.138E+01,-1.789E-01,-2.186E+00,2.500E+00
3.50E+01,2.188E+01,-1.796E-01,-2.237E+00,2.500E+00
3.60E+01,2.239E+01,-1.823E-01,-2.298E+00,2.500E+00
3.70E+01,2.291E+01,-1.851E-01,-2.341E+00,2.500E+00
3.80E+01,2.344E+01,-1.775E-01,-2.405E+00,2.500E+00
3.90E+01,2.399E+01,-1.850E-01,-2.454E+00,2.500E+00
4.00E+01,2.455E+01,-1.854E-01,-2.500E+00,2.500E+00
4.10E+01,2.512E+01,-1.900E-01,-2.557E+00,2.500E+00
4.20E+01,2.570E+01,-1.873E-01,-2.624E+00,2.500E+00
4.30E+01,2.630E+01,-1.943E-01,-2.686E+00,2.500E+00
4.40E+01,2.692E+01,-1.929E-01,-2.750E+00,2.500E+00
4.50E+01,2.754E+01,-1.978E-01,-2.803E+00,2.500E+00
4.60E+01,2.818E+01,-1.975E-01,-2.876E+00,2.500E+00
4.70E+01,2.884E+01,-1.938E-01,-2.945E+00,2.500E+00
4.80E+01,2.951E+01,-2.034E-01,-2.996E+00,2.500E+00
4.90E+01,3.020E+01,-1.367E-01,-3.591E+00,2.500E+00
5.00E+01,3.090E+01,-1.384E-01,-3.677E+00,2.500E+00
5.10E+01,3.162E+01,-1.366E-01,-3.772E+00,2.500E+00
5.20E+01,3.236E+01,-1.402E-01,-3.865E+00,2.500E+00
5.30E+01,3.311E+01,-1.401E-01,-3.933E+00,2.500E+00
5.40E+01,3.388E+01,-1.441E-01,-4.033E+00,2.500E+00
5.50E+01,3.467E+01,-1.433E-01,-4.117E+00,2.500E+00
5.60E+01,3.548E+01,-1.467E-01,-4.220E+00,2.500E+00
5.70E+01,3.631E+01,-1.466E-01,-4.312E+00,2.500E+00
5.80E+01,3.715E+01,-1.495E-01,-4.412E+00,2.500E+00
5.90E+01,3.802E+01,-1.513E-01,-4.505E+00,2.500E+00
6.00E+01,3.890E+01,-1.557E-01,-4.613E+00,2.500E+00
6.10E+01,3.981E+01,-1.537E-01,-4.712E+00,2.500E+00
6.20E+01,4.074E+01,-1.554E-01,-4.823E+00,2.500E+00
6.30E+01,4.169E+01,-1.566E-01,-4.943E+00,2.500E+00
6.40E+01,4.266E+01,-1.616E-01,-5.055E+00,2.500E+00
6.50E+01,4.365E+01,-1.622E-01,-5.171E+00,2.500E+00
6.60E+01,4.467E+01,-1.650E-01,-5.292E+00,2.500E+00
6.70E+01,4.571E+01,-1.682E-01,-5.409E+00,2.500E+00
6.80E+01,4.677E+01,-1.692E-01,-5.535E+00,2.500E+00
6.90E+01,4.786E+01,-1.738E-01,-5.656E+00,2.500E+00
7.00E+01,4.898E+01,-1.797E-01,-5.790E+00,2.500E+00
7.10E+01,5.012E+01,-1.781E-01,-5.921E+00,2.500E+00
7.20E+01,5.129E+01,-1.810E-01,-6.052E+00,2.500E+00
7.30E+01,5.248E+01,-1.843E-01,-6.195E+00,2.500E+00
7.40E+01,5.370E+01,-1.871E-01,-6.324E+00,2.500E+00
7.50E+01,5.495E+01,-1.914E-01,-6.477E+00,2.500E+00
7.60E+01,5.623E+01,-1.959E-01,-6.613E+00,2.500E+00
7.70E+01,5.754E+01,-1.963E-01,-6.756E+00,2.500E+00
7.80E+01,5.888E+01,-2.026E-01,-6.929E+00,2.500E+00
7.90E+01,6.026E+01,-2.058E-01,-7.084E+00,2.500E+00
8.00E+01,6.166E+01,-2.097E-01,-7.246E+00,2.500E+00
8.10E+01,6.310E+01,-2.125E-01,-7.413E+00,2.500E+00
8.20E+01,6.457E+01,-2.187E-01,-7.589E+00,2.500E+00
8.30E+01,6.607E+01,-2.267E-01,-7.743E+00,2.500E+00
8.40E+01,6.761E+01,-2.293E-01,-7.928E+00,2.500E+00
8.50E+01,6.918E+01,-2.353E-01,-8.106E+00,2.500E+00
8.60E+01,7.079E+01,-2.410E-01,-8.269E+00,2.500E+00
8.70E+01,7.244E+01,-2.446E-01,-8.454E+00,2.500E+00
8.80E+01,7.413E+01,-2.517E-01,-8.647E+00,2.500E+00
8.90E+01,7.586E+01,-2.594E-01,-8.860E+00,2.500E+00
9.00E+01,7.762E+01,-2.653E-01,-9.054E+00,2.500E+00
9.10E+01,7.943E+01,-2.685E-01,-9.246E+00,2.500E+00
9.20E+01,8.128E+01,-2.805E-01,-9.463E+00,2.500E+00
9.30E+01,8.318E+01,-2.859E-01,-9.676E+00,2.500E+00
9.40E+01,8.511E+01,-2.939E-01,-9.877E+00,2.500E+00
9.50E+01,8.710E+01,-3.015E-01,-1.011E+01,2.500E+00
9.60E+01,8.913E+01,-3.100E-01,-1.033E+01,2.500E+00
9.70E+01,9.120E+01,-3.181E-01,-1.056E+01,2.500E+00
9.80E+01,9.333E+01,-3.261E-01,-1.078E+01,2.500E+00
9.90E+01,9.550E+01,-3.377E-01,-1.102E+01,2.500E+00
1.00E+02,9.772E+01,-3.475E-01,-1.128E+01,2.500E+00
1.01E+02,1.000E+02,-3.604E-01,-1.153E+01,2.500E+00
1.02E+02,1.023E+02,-3.707E-01,-1.178E+01,2.500E+00
1.03E+02,1.047E+02,-3.788E-01,-1.203E+01,2.500E+00
1.04E+02,1.072E+02,-3.889E-01,-1.229E+01,2.500E+00
1.05E+02,1.096E+02,-4.015E-01,-1.254E+01,2.500E+00
1.06E+02,1.122E+02,-4.150E-01,-1.281E+01,2.500E+00
1.07E+02,1.148E+02,-4.258E-01,-1.309E+01,2.500E+00
1.08E+02,1.175E+02,-4.430E-01,-1.337E+01,2.500E+00
1.09E+02,1.202E+02,-4.571E-01,-1.366E+01,2.500E+00
1.10E+02,1.230E+02,-4.707E-01,-1.396E+01,2.500E+00
1.11E+02,1.259E+02,-4.868E-01,-1.427E+01,2.500E+00
1.12E+02,1.288E+02,-5.029E-01,-1.456E+01,2.500E+00
1.13E+02,1.318E+02,-5.217E-01,-1.487E+01,2.500E+00
1.14E+02,1.349E+02,-5.367E-01,-1.520E+01,2.500E+00
1.15E+02,1.380E+02,-5.573E-01,-1.551E+01,2.500E+00
1.16E+02,1.413E+02,-5.733E-01,-1.584E+01,2.500E+00
1.17E+02,1.445E+02,-5.899E-01,-1.616E+01,2.500E+00
1.18E+02,1.479E+02,-6.137E-01,-1.650E+01,2.500E+00
1.19E+02,1.514E+02,-6.345E-01,-1.684E+01,2.500E+00
1.20E+02,1.549E+02,-6.570E-01,-1.719E+01,2.500E+00
1.21E+02,1.585E+02,-6.787E-01,-1.754E+01,2.500E+00
1.22E+02,1.622E+02,-7.015E-01,-1.790E+01,2.500E+00
1.23E+02,1.660E+02,-7.239E-01,-1.826E+01,2.500E+00
1.24E+02,1.698E+02,-7.479E-01,-1.863E+01,2.500E+00
1.25E+02,1.738E+02,-7.763E-01,-1.899E+01,2.500E+00
1.26E+02,1.778E+02,-8.040E-01,-1.937E+01,2.500E+00
1.27E+02,1.820E+02,-8.320E-01,-1.975E+01,2.500E+00
1.28E+02,1.862E+02,-8.606E-01,-2.015E+01,2.500E+00
1.29E+02,1.905E+02,-8.913E-01,-2.054E+01,2.500E+00
1.30E+02,1.950E+02,-9.237E-01,-2.097E+01,2.500E+00
1.31E+02,1.995E+02,-9.570E-01,-2.137E+01,2.500E+00
1.32E+02,2.042E+02,-9.907E-01,-2.177E+01,2.500E+00
1.33E+02,2.089E+02,-1.020E+00,-2.218E+01,2.500E+00
1.34E+02,2.138E+02,-1.056E+00,-2.259E+01,2.500E+00
1.35E+02,2.188E+02,-1.087E+00,-2.301E+01,2.500E+00
1.36E+02,2.239E+02,-1.123E+00,-2.343E+01,2.500E+00
1.37E+02,2.291E+02,-1.162E+00,-2.386E+01,2.500E+00
1.38E+02,2.344E+02,-1.202E+00,-2.429E+01,2.500E+00
1.39E+02,2.399E+02,-1.245E+00,-2.476E+01,2.500E+00
1.40E+02,2.455E+02,-1.288E+00,-2.521E+01,2.500E+00
1.41E+02,2.512E+02,-1.334E+00,-2.567E+01,2.500E+00
1.42E+02,2.570E+02,-1.379E+00,-2.613E+01,2.500E+00
1.43E+02,2.630E+02,-1.424E+00,-2.658E+01,2.500E+00
1.44E+02,2.692E+02,-1.473E+00,-2.707E+01,2.500E+00
1.45E+02,2.754E+02,-1.521E+00,-2.752E+01,2.500E+00
1.46E+02,2.818E+02,-1.569E+00,-2.800E+01,2.500E+00
1.47E+02,2.884E+02,-1.621E+00,-2.848E+01,2.500E+00
1.48E+02,2.951E+02,-1.670E+00,-2.897E+01,2.500E+00
1.49E+02,3.020E+02,-1.726E+00,-2.945E+01,2.500E+00
1.50E+02,3.090E+02,-1.781E+00,-2.992E+01,2.500E+00
1.51E+02,3.162E+02,-1.840E+00,-3.043E+01,2.500E+00
1.52E+02,3.236E+02,-1.896E+00,-3.094E+01,2.500E+00
1.53E+02,3.311E+02,-1.956E+00,-3.145E+01,2.500E+00
1.54E+02,3.388E+02,-2.011E+00,-3.195E+01,2.500E+00
1.55E+02,3.467E+02,-2.074E+00,-3.245E+01,2.500E+00
1.56E+02,3.548E+02,-2.138E+00,-3.295E+01,2.500E+00
1.57E+02,3.631E+02,-2.206E+00,-3.346E+01,2.500E+00
1.58E+02,3.715E+02,-2.274E+00,-3.398E+01,2.500E+00
1.59E+02,3.802E+02,-2.344E+00,-3.451E+01,2.500E+00
1.60E+02,3.890E+02,-2.414E+00,-3.503E+01,2.500E+00
1.61E+02,3.981E+02,-2.486E+00,-3.556E+01,2.500E+00
1.62E+02,4.074E+02,-2.557E+00,-3.609E+01,2.500E+00
1.63E+02,4.169E+02,-2.629E+00,-3.659E+01,2.500E+00
1.64E+02,4.266E+02,-2.699E+00,-3.712E+01,2.500E+00
1.65E+02,4.365E+02,-2.772E+00,-3.765E+01,2.500E+00
1.66E+02,4.467E+02,-2.847E+00,-3.819E+01,2.500E+00
1.67E+02,4.571E+02,-2.925E+00,-3.870E+01,2.500E+00
1.68E+02,4.677E+02,-3.007E+00,-3.923E+01,2.500E+00
1.69E+02,4.786E+02,-3.091E+00,-3.977E+01,2.500E+00
1.70E+02,4.898E+02,-3.182E+00,-4.034E+01,2.500E+00
1.71E+02,5.012E+02,-3.271E+00,-4.089E+01,2.500E+00
1.72E+02,5.129E+02,-3.357E+00,-4.144E+01,2.500E+00
1.73E+02,5.248E+02,-3.447E+00,-4.199E+01,2.500E+00
1.74E+02,5.370E+02,-3.539E+00,-4.255E+01,2.500E+00
1.75E+02,5.495E+02,-3.631E+00,-4.308E+01,2.500E+00
1.76E+02,5.623E+02,-3.744E+00,-4.363E+01,2.500E+00
1.77E+02,5.754E+02,-3.838E+00,-4.419E+01,2.500E+00
1.78E+02,5.888E+02,-3.934E+00,-4.475E+01,2.500E+00
1.79E+02,6.026E+02,-4.033E+00,-4.532E+01,2.500E+00
1.80E+02,6.166E+02,-4.134E+00,-4.586E+01,2.500E+00
1.81E+02,6.310E+02,-4.237E+00,-4.642E+01,2.500E+00
1.82E+02,6.457E+02,-4.343E+00,-4.699E+01,2.500E+00
1.83E+02,6.607E+02,-4.444E+00,-4.754E+01,2.500E+00
1.84E+02,6.761E+02,-4.548E+00,-4.811E+01,2.500E+00
1.85E+02,6.918E+02,-4.656E+00,-4.866E+01,2.500E+00
1.86E+02,7.079E+02,-4.762E+00,-4.920E+01,2.500E+00
1.87E+02,7.244E+02,-4.880E+00,-4.975E+01,2.500E+00
1.88E+02,7.413E+02,-4.996E+00,-5.031E+01,2.500E+00
1.89E+02,7.586E+02,-5.116E+00,-5.089E+01,2.500E+00
1.90E+02,7.762E+02,-5.235E+00,-5.143E+01,2.500E+00
1.91E+02,7.943E+02,-5.357E+00,-5.197E+01,2.500E+00
1.92E+02,8.128E+02,-5.479E+00,-5.253E+01,2.500E+00
1.93E+02,8.318E+02,-5.595E+00,-5.308E+01,2.500E+00
1.94E+02,8.511E+02,-5.715E+00,-5.363E+01,2.500E+00
1.95E+02,8.710E+02,-5.835E+00,-5.418E+01,2.500E+00
1.96E+02,8.913E+02,-5.957E+00,-5.471E+01,2.500E+00
1.97E+02,9.120E+02,-6.083E+00,-5.525E+01,2.500E+00
1.98E+02,9.333E+02,-6.218E+00,-5.578E+01,2.500E+00
1.99E+02,9.550E+02,-6.351E+00,-5.630E+01,2.500E+00
2.00E+02,9.772E+02,-6.491E+00,-5.684E+01,2.500E+00
2.01E+02,1.000E+03,-6.638E+00,-5.743E+01,2.500E+00
2.02E+02,1.023E+03,-6.765E+00,-5.793E+01,2.500E+00
2.03E+02,1.047E+03,-6.903E+00,-5.842E+01,2.500E+00
2.04E+02,1.072E+03,-7.045E+00,-5.893E+01,2.500E+00
2.05E+02,1.096E+03,-7.193E+00,-5.946E+01,2.500E+00
2.06E+02,1.122E+03,-7.334E+00,-6.002E+01,2.500E+00
2.07E+02,1.148E+03,-7.481E+00,-6.055E+01,2.500E+00
2.08E+02,1.175E+03,-7.627E+00,-6.109E+01,2.500E+00
2.09E+02,1.202E+03,-7.773E+00,-6.162E+01,2.500E+00
2.10E+02,1.230E+03,-7.918E+00,-6.209E+01,2.500E+00
2.11E+02,1.259E+03,-8.075E+00,-6.255E+01,2.500E+00
2.12E+02,1.288E+03,-8.237E+00,-6.300E+01,2.500E+00
2.13E+02,1.318E+03,-8.395E+00,-6.349E+01,2.500E+00
2.14E+02,1.349E+03,-8.550E+00,-6.397E+01,2.500E+00
2.15E+02,1.380E+03,-8.698E+00,-6.447E+01,2.500E+00
2.16E+02,1.413E+03,-8.848E+00,-6.493E+01,2.500E+00
2.17E+02,1.445E+03,-9.004E+00,-6.537E+01,2.500E+00
2.18E+02,1.479E+03,-9.170E+00,-6.582E+01,2.500E+00
2.19E+02,1.514E+03,-9.340E+00,-6.631E+01,2.500E+00
2.20E+02,1.549E+03,-9.508E+00,-6.680E+01,2.500E+00
2.21E+02,1.585E+03,-9.674E+00,-6.728E+01,2.500E+00
2.22E+02,1.622E+03,-9.837E+00,-6.768E+01,2.500E+00
2.23E+02,1.660E+03,-1.001E+01,-6.801E+01,2.500E+00
2.24E+02,1.698E+03,-1.018E+01,-6.839E+01,2.500E+00
2.25E+02,1.738E+03,-1.035E+01,-6.885E+01,2.500E+00
2.26E+02,1.778E+03,-1.051E+01,-6.933E+01,2.500E+00
2.27E+02,1.820E+03,-1.067E+01,-6.976E+01,2.500E+00
2.28E+02,1.862E+03,-1.085E+01,-7.011E+01,2.500E+00
2.29E+02,1.905E+03,-1.102E+01,-7.052E+01,2.500E+00
2.30E+02,1.950E+03,-1.121E+01,-7.095E+01,2.500E+00
2.31E+02,1.995E+03,-1.138E+01,-7.132E+01,2.500E+00
2.32E+02,2.042E+03,-1.155E+01,-7.165E+01,2.500E+00
2.33E+02,2.089E+03,-1.171E+01,-7.200E+01,2.500E+00
2.34E+02,2.138E+03,-1.189E+01,-7.234E+01,2.500E+00
2.35E+02,2.188E+03,-1.208E+01,-7.269E+01,2.500E+00
2.36E+02,2.239E+03,-1.226E+01,-7.307E+01,2.500E+00
2.37E+02,2.291E+03,-1.244E+01,-7.344E+01,2.500E+00
2.38E+02,2.344E+03,-1.263E+01,-7.382E+01,2.500E+00
2.39E+02,2.399E+03,-1.281E+01,-7.420E+01,2.500E+00
2.40E+02,2.455E+03,-1.299E+01,-7.452E+01,2.500E+00
2.41E+02,2.512E+03,-1.317E+01,-7.477E+01,2.500E+00
2.42E+02,2.570E+03,-1.336E+01,-7.499E+01,2.500E+00
2.43E+02,2.630E+03,-1.355E+01,-7.526E+01,2.500E+00
2.44E+02,2.692E+03,-1.373E+01,-7.559E+01,2.500E+00
2.45E+02,2.754E+03,-1.392E+01,-7.594E+01,2.500E+00
2.46E+02,2.818E+03,-1.410E+01,-7.631E+01,2.500E+00
2.47E+02,2.884E+03,-1.427E+01,-7.661E+01,2.500E+00
2.48E+02,2.951E+03,-1.446E+01,-7.684E+01,2.500E+00
2.49E+02,3.020E+03,-1.465E+01,-7.709E+01,2.500E+00
2.50E+02,3.090E+03,-1.485E+01,-7.740E+01,2.500E+00
2.51E+02,3.162E+03,-1.505E+01,-7.768E+01,2.500E+00
2.52E+02,3.236E+03,-1.523E+01,-7.793E+01,2.500E+00
2.53E+02,3.311E+03,-1.541E+01,-7.812E+01,2.500E+00
2.54E+02,3.388E+03,-1.560E+01,-7.832E+01,2.500E+00
2.55E+02,3.467E+03,-1.579E+01,-7.859E+01,2.500E+00
2.56E+02,3.548E+03,-1.599E+01,-7.889E+01,2.500E+00
2.57E+02,3.631E+03,-1.618E+01,-7.919E+01,2.500E+00
2.58E+02,3.715E+03,-1.636E+01,-7.942E+01,2.500E+00
2.59E+02,3.802E+03,-1.656E+01,-7.955E+01,2.500E+00
2.60E+02,3.890E+03,-1.677E+01,-7.975E+01,2.500E+00
2.61E+02,3.981E+03,-1.696E+01,-7.997E+01,2.500E+00
2.62E+02,4.074E+03,-1.714E+01,-8.022E+01,2.500E+00
2.63E+02,4.169E+03,-1.735E+01,-8.045E+01,2.500E+00
2.64E+02,4.266E+03,-1.752E+01,-8.058E+01,2.500E+00
2.65E+02,4.365E+03,-1.771E+01,-8.072E+01,2.500E+00
2.66E+02,4.467E+03,-1.791E+01,-8.093E+01,2.500E+00
2.67E+02,4.571E+03,-1.811E+01,-8.117E+01,2.500E+00
2.68E+02,4.677E+03,-1.830E+01,-8.140E+01,2.500E+00
2.69E+02,4.786E+03,-1.850E+01,-8.164E+01,2.500E+00
2.70E+02,4.898E+03,-1.869E+01,-8.182E+01,2.500E+00
2.71E+02,5.012E+03,-1.888E+01,-8.194E+01,2.500E+00
2.72E+02,5.129E+03,-1.907E+01,-8.203E+01,2.500E+00
2.73E+02,5.248E+03,-1.926E+01,-8.217E+01,2.500E+00
2.74E+02,5.370E+03,-1.946E+01,-8.236E+01,2.500E+00
2.75E+02,5.495E+03,-1.966E+01,-8.258E+01,2.500E+00
2.76E+02,5.623E+03,-1.987E+01,-8.279E+01,2.500E+00
2.77E+02,5.754E+03,-2.007E+01,-8.295E+01,2.500E+00
2.78E+02,5.888E+03,-2.025E+01,-8.303E+01,2.500E+00
2.79E+02,6.026E+03,-2.044E+01,-8.310E+01,2.500E+00
2.80E+02,6.166E+03,-2.064E+01,-8.325E+01,2.500E+00
2.81E+02,6.310E+03,-2.084E+01,-8.346E+01,2.500E+00
2.82E+02,6.457E+03,-2.105E+01,-8.366E+01,2.500E+00
2.83E+02,6.607E+03,-2.125E+01,-8.379E+01,2.500E+00
2.84E+02,6.761E+03,-2.144E+01,-8.383E+01,2.500E+00
2.85E+02,6.918E+03,-2.163E+01,-8.390E+01,2.500E+00
2.86E+02,7.079E+03,-2.183E+01,-8.408E+01,2.500E+00
2.87E+02,7.244E+03,-2.204E+01,-8.427E+01,2.500E+00
2.88E+02,7.413E+03,-2.224E+01,-8.443E+01,2.500E+00
2.89E+02,7.586E+03,-2.243E+01,-8.446E+01,2.500E+00
2.90E+02,7.762E+03,-2.261E+01,-8.449E+01,2.500E+00
2.91E+02,7.943E+03,-2.281E+01,-8.465E+01,2.500E+00
2.92E+02,8.128E+03,-2.301E+01,-8.483E+01,2.500E+00
2.93E+02,8.318E+03,-2.321E+01,-8.495E+01,2.500E+00
2.94E+02,8.511E+03,-2.341E+01,-8.498E+01,2.500E+00
2.95E+02,8.710E+03,-2.360E+01,-8.504E+01,2.500E+00
2.96E+02,8.913E+03,-2.379E+01,-8.512E+01,2.500E+00
2.97E+02,9.120E+03,-2.400E+01,-8.522E+01,2.500E+00
2.98E+02,9.333E+03,-2.421E+01,-8.537E+01,2.500E+00
2.99E+02,9.550E+03,-2.441E+01,-8.551E+01,2.500E+00
3.00E+02,9.772E+03,-2.463E+01,-8.562E+01,2.500E+00
3.01E+02,1.000E+04,-2.481E+01,-8.565E+01,2.500E+00
3.02E+02,1.023E+04,-2.500E+01,-8.569E+01,2.500E+00
3.03E+02,1.047E+04,-2.521E+01,-8.581E+01,2.500E+00
3.04E+02,1.072E+04,-2.542E+01,-8.594E+01,2.500E+00
3.05E+02,1.096E+04,-2.561E+01,-8.598E+01,2.500E+00
3.06E+02,1.122E+04,-2.580E+01,-8.601E+01,2.500E+00
3.07E+02,1.148E+04,-2.601E+01,-8.612E+01,2.500E+00
3.08E+02,1.175E+04,-2.622E+01,-8.624E+01,2.500E+00
3.09E+02,1.202E+04,-2.640E+01,-8.627E+01,2.500E+00
3.10E+02,1.230E+04,-2.660E+01,-8.630E+01,2.500E+00
3.11E+02,1.259E+04,-2.681E+01,-8.644E+01,2.500E+00
3.12E+02,1.288E+04,-2.701E+01,-8.650E+01,2.500E+00
3.13E+02,1.318E+04,-2.720E+01,-8.651E+01,2.500E+00
3.14E+02,1.349E+04,-2.741E+01,-8.660E+01,2.500E+00
3.15E+02,1.380E+04,-2.762E+01,-8.669E+01,2.500E+00
3.16E+02,1.413E+04,-2.780E+01,-8.670E+01,2.500E+00
3.17E+02,1.445E+04,-2.801E+01,-8.677E+01,2.500E+00
3.18E+02,1.479E+04,-2.822E+01,-8.687E+01,2.500E+00
3.19E+02,1.514E+04,-2.841E+01,-8.687E+01,2.500E+00
3.20E+02,1.549E+04,-2.862E+01,-8.695E+01,2.500E+00
3.21E+02,1.585E+04,-2.883E+01,-8.702E+01,2.500E+00
3.22E+02,1.622E+04,-2.902E+01,-8.702E+01,2.500E+00
3.23E+02,1.660E+04,-2.923E+01,-8.710E+01,2.500E+00
3.24E+02,1.698E+04,-2.942E+01,-8.714E+01,2.500E+00
3.25E+02,1.738E+04,-2.962E+01,-8.717E+01,2.500E+00
3.26E+02,1.778E+04,-2.984E+01,-8.726E+01,2.500E+00
3.27E+02,1.820E+04,-3.002E+01,-8.725E+01,2.500E+00
3.28E+02,1.862E+04,-3.024E+01,-8.733E+01,2.500E+00
3.29E+02,1.905E+04,-3.043E+01,-8.734E+01,2.500E+00
3.30E+02,1.950E+04,-3.062E+01,-8.741E+01,2.500E+00
3.31E+02,1.995E+04,-3.082E+01,-8.743E+01,2.500E+00
3.32E+02,2.042E+04,-3.102E+01,-8.746E+01,2.500E+00
3.33E+02,2.089E+04,-3.123E+01,-8.752E+01,2.500E+00
3.34E+02,2.138E+04,-3.144E+01,-8.752E+01,2.500E+00
3.35E+02,2.188E+04,-3.165E+01,-8.759E+01,2.500E+00
3.36E+02,2.239E+04,-3.185E+01,-8.757E+01,2.500E+00
3.37E+02,2.291E+04,-3.206E+01,-8.764E+01,2.500E+00
3.38E+02,2.344E+04,-3.226E+01,-8.764E+01,2.500E+00
3.39E+02,2.399E+04,-3.246E+01,-8.769E+01,2.500E+00
3.40E+02,2.455E+04,-3.267E+01,-8.774E+01,2.500E+00
3.41E+02,2.512E+04,-3.288E+01,-8.771E+01,2.500E+00
3.42E+02,2.570E+04,-3.307E+01,-8.772E+01,2.500E+00
3.43E+02,2.630E+04,-3.326E+01,-8.775E+01,2.500E+00
3.44E+02,2.692E+04,-3.348E+01,-8.785E+01,2.500E+00
3.45E+02,2.754E+04,-3.368E+01,-8.785E+01,2.500E+00
3.46E+02,2.818E+04,-3.389E+01,-8.783E+01,2.500E+00
3.47E+02,2.884E+04,-3.412E+01,-8.786E+01,2.500E+00
3.48E+02,2.951E+04,-3.433E+01,-8.789E+01,2.500E+00
3.49E+02,3.020E+04,-3.453E+01,-8.790E+01,2.500E+00
3.50E+02,3.090E+04,-3.472E+01,-8.788E+01,2.500E+00
3.51E+02,3.162E+04,-3.495E+01,-8.796E+01,2.500E+00
3.52E+02,3.236E+04,-3.516E+01,-8.796E+01,2.500E+00
3.53E+02,3.311E+04,-3.535E+01,-8.791E+01,2.500E+00
3.54E+02,3.388E+04,-3.557E+01,-8.794E+01,2.500E+00
3.55E+02,3.467E+04,-3.579E+01,-8.799E+01,2.500E+00
3.56E+02,3.548E+04,-3.599E+01,-8.795E+01,2.500E+00
3.57E+02,3.631E+04,-3.620E+01,-8.799E+01,2.500E+00
3.58E+02,3.715E+04,-3.643E+01,-8.802E+01,2.500E+00
3.59E+02,3.802E+04,-3.662E+01,-8.798E+01,2.500E+00
3.60E+02,3.890E+04,-3.684E+01,-8.801E+01,2.500E+00
3.61E+02,3.981E+04,-3.706E+01,-8.799E+01,2.500E+00
3.62E+02,4.074E+04,-3.726E+01,-8.797E+01,2.500E+00
3.63E+02,4.169E+04,-3.749E+01,-8.797E+01,2.500E+00
3.64E+02,4.266E+04,-3.766E+01,-8.793E+01,2.500E+00
3.65E+02,4.365E+04,-3.791E+01,-8.796E+01,2.500E+00
3.66E+02,4.467E+04,-3.815E+01,-8.798E+01,2.500E+00
3.67E+02,4.571E+04,-3.836E+01,-8.785E+01,2.500E+00
3.68E+02,4.677E+04,-3.859E+01,-8.792E+01,2.500E+00
3.69E+02,4.786E+04,-3.880E+01,-8.794E+01,2.500E+00
3.70E+02,4.898E+04,-3.903E+01,-8.791E+01,2.500E+00
3.71E+02,5.012E+04,-3.925E+01,-8.791E+01,2.500E+00
3.72E+02,5.129E+04,-3.946E+01,-8.788E+01,2.500E+00
3.73E+02,5.248E+04,-3.970E+01,-8.787E+01,2.500E+00
3.74E+02,5.370E+04,-3.991E+01,-8.783E+01,2.500E+00
3.75E+02,5.495E+04,-4.015E+01,-8.779E+01,2.500E+00
3.76E+02,5.623E+04,-4.037E+01,-8.780E+01,2.500E+00
3.77E+02,5.754E+04,-4.061E+01,-8.773E+01,2.500E+00
3.78E+02,5.888E+04,-4.083E+01,-8.771E+01,2.500E+00
3.79E+02,6.026E+04,-4.106E+01,-8.767E+01,2.500E+00
3.80E+02,6.166E+04,-4.130E+01,-8.763E+01,2.500E+00
3.81E+02,6.310E+04,-4.153E+01,-8.759E+01,2.500E+00
3.82E+02,6.457E+04,-4.177E+01,-8.751E+01,2.500E+00
3.83E+02,6.607E+04,-4.202E+01,-8.750E+01,2.500E+00
3.84E+02,6.761E+04,-4.227E+01,-8.752E+01,2.500E+00
3.85E+02,6.918E+04,-4.250E+01,-8.746E+01,2.500E+00
3.86E+02,7.079E+04,-4.273E+01,-8.731E+01,2.500E+00
3.87E+02,7.244E+04,-4.299E+01,-8.731E+01,2.500E+00
3.88E+02,7.413E+04,-4.325E+01,-8.727E+01,2.500E+00
3.89E+02,7.586E+04,-4.349E+01,-8.718E+01,2.500E+00
3.90E+02,7.762E+04,-4.375E+01,-8.707E+01,2.500E+00
